511.0 2
508.0 4
511.0 6
502.0 9
494.0 11
471.0 13
432.0 16
406.0 18
384.0 20
376.0 23
405.0 28
481.0 37
396.0 48
490.0 57
402.0 66
481.0 75
418.0 84
474.0 94
435.0 103
469.0 114
427.0 124
482.0 135
405.0 145
501.0 155
417.0 165
507.0 176
424.0 187
522.0 197
435.0 207
525.0 218
444.0 228
510.0 238
438.0 249
507.0 260
455.0 270
489.0 280
468.0 290
486.0 301
482.0 311
485.0 322
474.0 332
450.0 343
657.0 353
792.0 363
681.0 373
478.0 385
564.0 395
474.0 405
540.0 415
455.0 425
549.0 436
458.0 447
548.0 457
465.0 467
548.0 478
482.0 488
548.0 498
503.0 508
551.0 520
522.0 530
551.0 540
544.0 550
545.0 561
559.0 571
546.0 582
564.0 592
512.0 603
538.0 613
479.0 623
522.0 633
445.0 644
520.0 655
435.0 665
526.0 675
434.0 686
522.0 696
441.0 706
526.0 717
443.0 728
515.0 738
460.0 748
507.0 758
473.0 769
492.0 780
477.0 790
486.0 800
490.0 811
483.0 821
503.0 831
476.0 841
513.0 852
470.0 863
526.0 873
467.0 883
529.0 893
459.0 904
541.0 915
457.0 925
545.0 935
453.0 946
542.0 956
460.0 966
532.0 976
462.0 988
527.0 998
481.0 1008
510.0 1019
527.0 1031
488.0 1042
564.0 1054
479.0 1065
550.0 1077
486.0 1088
503.0 1099
517.0 1111
473.0 1123
547.0 1134
457.0 1145
534.0 1157
488.0 1168
467.0 1180
533.0 1191
731.0 1203
804.0 1214
499.0 1225
553.0 1236
512.0 1249
501.0 1260
525.0 1271
472.0 1283
549.0 1294
467.0 1305
539.0 1317
501.0 1329
506.0 1340
546.0 1351
496.0 1362
574.0 1374
502.0 1386
566.0 1397
547.0 1409
547.0 1420
584.0 1431
517.0 1442
577.0 1455
479.0 1466
527.0 1477
495.0 1488
481.0 1500
518.0 1512
456.0 1523
535.0 1534
455.0 1546
517.0 1557
494.0 1568
488.0 1581
530.0 1592
462.0 1603
543.0 1614
466.0 1626
515.0 1637
504.0 1649
487.0 1660
528.0 1672
461.0 1683
539.0 1694
469.0 1705
511.0 1718
507.0 1729
484.0 1740
535.0 1752
453.0 1763
542.0 1774
477.0 1786
509.0 1798
515.0 1809
493.0 1820
548.0 1831
470.0 1843
562.0 1855
502.0 1866
521.0 1878
522.0 1889
482.0 1900
538.0 1912
455.0 1924
532.0 1935
476.0 1946
498.0 1957
514.0 1969
461.0 1981
512.0 1992
632.0 2003
834.0 2015
576.0 2026
510.0 2037
544.0 2050
477.0 2061
540.0 2072
458.0 2083
530.0 2095
487.0 2106
505.0 2118
523.0 2129
486.0 2141
558.0 2152
474.0 2163
548.0 2174
522.0 2187
525.0 2198
565.0 2209
513.0 2221
586.0 2232
505.0 2244
554.0 2255
500.0 2267
488.0 2278
509.0 2289
454.0 2300
524.0 2313
448.0 2324
504.0 2335
480.0 2347
477.0 2358
509.0 2369
457.0 2381
531.0 2393
451.0 2404
515.0 2415
487.0 2426
484.0 2438
524.0 2450
454.0 2461
537.0 2472
458.0 2484
511.0 2495
497.0 2506
484.0 2519
524.0 2530
452.0 2541
545.0 2552
461.0 2564
516.0 2575
507.0 2587
486.0 2598
534.0 2610
462.0 2621
546.0 2632
475.0 2644
516.0 2656
516.0 2667
499.0 2678
551.0 2690
481.0 2701
562.0 2713
484.0 2724
526.0 2736
517.0 2747
487.0 2758
538.0 2769
458.0 2782
538.0 2793
480.0 2804
511.0 2816
486.0 2827
479.0 2838
768.0 2850
724.0 2862
583.0 2873
503.0 2884
516.0 2895
513.0 2907
477.0 2919
536.0 2930
456.0 2941
533.0 2953
484.0 2964
503.0 2976
520.0 2988
493.0 2999
557.0 3010
481.0 3021
562.0 3033
524.0 3045
540.0 3056
566.0 3067
530.0 3079
581.0 3090
474.0 3101
537.0 3113
475.0 3125
475.0 3136
500.0 3147
447.0 3159
518.0 3170
437.0 3182
504.0 3193
472.0 3205
474.0 3216
506.0 3227
450.0 3238
525.0 3251
444.0 3262
507.0 3273
476.0 3284
480.0 3296
506.0 3307
451.0 3319
524.0 3331
446.0 3342
508.0 3353
481.0 3364
478.0 3377
514.0 3388
452.0 3399
528.0 3410
454.0 3422
509.0 3433
496.0 3445
488.0 3457
533.0 3468
462.0 3479
553.0 3490
476.0 3502
522.0 3514
510.0 3525
486.0 3536
533.0 3548
450.0 3559
532.0 3570
465.0 3582
503.0 3594
503.0 3605
459.0 3616
516.0 3628
651.0 3639
823.0 3651
541.0 3662
516.0 3674
528.0 3685
485.0 3696
532.0 3708
458.0 3720
538.0 3731
487.0 3742
515.0 3753
525.0 3765
497.0 3777
560.0 3788
486.0 3800
573.0 3811
512.0 3822
549.0 3833
571.0 3846
540.0 3857
597.0 3868
504.0 3879
564.0 3891
497.0 3902
503.0 3914
508.0 3926
463.0 3937
525.0 3948
444.0 3959
515.0 3971
470.0 3983
492.0 3994
508.0 4005
468.0 4017
537.0 4028
454.0 4039
524.0 4051
479.0 4063
493.0 4074
509.0 4085
463.0 4097
536.0 4109
457.0 4120
523.0 4131
489.0 4143
491.0 4154
517.0 4165
468.0 4177
549.0 4189
470.0 4200
538.0 4211
521.0 4222
513.0 4234
540.0 4246
474.0 4257
543.0 4269
459.0 4280
522.0 4291
498.0 4302
486.0 4315
525.0 4326
458.0 4337
496.0 4348
515.0 4360
821.0 4371
703.0 4383
501.0 4395
551.0 4406
468.0 4417
535.0 4428
462.0 4441
509.0 4452
505.0 4463
495.0 4474
535.0 4486
473.0 4497
551.0 4509
490.0 4520
533.0 4532
538.0 4543
524.0 4554
580.0 4566
508.0 4578
593.0 4589
526.0 4600
549.0 4612
528.0 4623
489.0 4634
527.0 4646
444.0 4658
517.0 4669
456.0 4680
483.0 4691
492.0 4703
468.0 4715
527.0 4726
447.0 4738
528.0 4749
475.0 4760
494.0 4771
505.0 4784
474.0 4795
529.0 4806
454.0 4817
525.0 4829
478.0 4841
492.0 4852
512.0 4864
475.0 4875
536.0 4886
457.0 4897
531.0 4910
495.0 4921
508.0 4932
536.0 4943
490.0 4955
559.0 4966
475.0 4978
527.0 4989
488.0 5001
497.0 5012
516.0 5023
467.0 5035
541.0 5047
455.0 5058
520.0 5069
446.0 5081
528.0 5092
824.0 5103
681.0 5115
555.0 5127
493.0 5138
522.0 5149
490.0 5160
484.0 5173
520.0 5184
464.0 5195
543.0 5207
466.0 5218
522.0 5229
512.0 5241
509.0 5253
550.0 5264
491.0 5275
579.0 5286
508.0 5298
559.0 5310
552.0 5321
538.0 5332
562.0 5344
480.0 5355
532.0 5366
456.0 5379
492.0 5390
484.0 5401
466.0 5412
508.0 5424
436.0 5435
520.0 5447
452.0 5458
491.0 5470
493.0 5481
472.0 5492
523.0 5504
451.0 5516
524.0 5527
463.0 5538
490.0 5550
495.0 5561
468.0 5573
532.0 5584
448.0 5596
523.0 5607
473.0 5618
494.0 5629
507.0 5642
475.0 5653
529.0 5664
453.0 5676
521.0 5687
486.0 5698
506.0 5710
522.0 5722
491.0 5733
555.0 5744
466.0 5755
536.0 5767
474.0 5779
505.0 5790
516.0 5801
470.0 5813
548.0 5824
472.0 5835
546.0 5848
462.0 5859
585.0 5870
865.0 5881
684.0 5893
577.0 5905
517.0 5916
565.0 5927
514.0 5939
518.0 5950
543.0 5961
487.0 5974
573.0 5985
479.0 5996
553.0 6007
516.0 6019
523.0 6030
553.0 6042
495.0 6053
583.0 6065
496.0 6076
556.0 6087
544.0 6098
538.0 6111
564.0 6122
478.0 6133
541.0 6145
462.0 6156
510.0 6167
490.0 6179
485.0 6191
523.0 6202
466.0 6213
541.0 6224
474.0 6236
520.0 6248
513.0 6259
490.0 6270
530.0 6282
461.0 6293
545.0 6305
471.0 6317
507.0 6328
501.0 6339
476.0 6350
531.0 6362
449.0 6374
521.0 6385
469.0 6396
501.0 6408
505.0 6419
472.0 6430
530.0 6443
448.0 6454
532.0 6465
473.0 6476
501.0 6488
519.0 6499
487.0 6511
557.0 6522
463.0 6534
540.0 6545
476.0 6556
495.0 6567
503.0 6580
462.0 6591
523.0 6602
446.0 6614
508.0 6625
468.0 6637
442.0 6648
550.0 6660
766.0 6671
725.0 6682
457.0 6693
536.0 6706
478.0 6717
477.0 6728
500.0 6739
459.0 6751
525.0 6762
448.0 6774
518.0 6786
484.0 6797
499.0 6808
519.0 6819
482.0 6831
563.0 6843
489.0 6854
563.0 6865
525.0 6877
533.0 6888
569.0 6899
498.0 6912
560.0 6923
457.0 6934
511.0 6945
478.0 6957
472.0 6968
505.0 6980
440.0 6991
519.0 7003
445.0 7014
496.0 7025
485.0 7037
480.0 7049
517.0 7060
451.0 7071
533.0 7083
453.0 7094
505.0 7106
493.0 7117
475.0 7129
520.0 7140
453.0 7151
524.0 7162
458.0 7175
503.0 7186
503.0 7197
480.0 7208
526.0 7220
453.0 7231
538.0 7243
481.0 7255
518.0 7266
525.0 7277
505.0 7288
554.0 7300
471.0 7312
546.0 7323
482.0 7334
504.0 7346
510.0 7357
477.0 7369
537.0 7380
454.0 7392
535.0 7403
445.0 7414
524.0 7426
801.0 7438
729.0 7449
572.0 7460
490.0 7472
548.0 7483
479.0 7494
499.0 7506
512.0 7518
471.0 7529
543.0 7540
465.0 7552
534.0 7563
497.0 7575
517.0 7586
539.0 7598
503.0 7609
574.0 7620
498.0 7631
572.0 7644
542.0 7655
545.0 7666
559.0 7677
488.0 7689
543.0 7700
452.0 7712
509.0 7724
475.0 7735
475.0 7746
506.0 7757
447.0 7770
523.0 7781
445.0 7792
504.0 7803
487.0 7815
479.0 7826
515.0 7838
452.0 7849
529.0 7861
453.0 7872
508.0 7883
491.0 7895
481.0 7907
519.0 7918
448.0 7929
529.0 7941
458.0 7952
502.0 7963
499.0 7975
479.0 7987
524.0 7998
456.0 8009
534.0 8020
470.0 8032
506.0 8044
505.0 8055
480.0 8067
532.0 8078
466.0 8089
547.0 8101
492.0 8113
527.0 8124
529.0 8135
495.0 8146
542.0 8158
455.0 8170
534.0 8181
470.0 8193
499.0 8204
513.0 8215
479.0 8226
537.0 8239
416.0 8250
597.0 8261
797.0 8272
692.0 8284
529.0 8295
512.0 8307
546.0 8318
456.0 8330
528.0 8341
485.0 8352
498.0 8364
520.0 8376
483.0 8387
546.0 8398
476.0 8410
548.0 8421
512.0 8432
527.0 8444
556.0 8456
512.0 8467
586.0 8478
508.0 8489
566.0 8502
531.0 8513
511.0 8524
524.0 8536
461.0 8547
528.0 8558
443.0 8570
506.0 8582
479.0 8593
475.0 8604
507.0 8615
452.0 8627
530.0 8639
452.0 8650
508.0 8662
489.0 8673
482.0 8684
518.0 8695
454.0 8708
533.0 8719
455.0 8730
506.0 8741
497.0 8753
480.0 8764
524.0 8776
456.0 8787
538.0 8799
465.0 8810
511.0 8821
503.0 8834
486.0 8845
533.0 8856
460.0 8867
539.0 8879
473.0 8890
509.0 8902
519.0 8913
488.0 8925
540.0 8936
472.0 8947
550.0 8958
494.0 8971
528.0 8982
535.0 8993
496.0 9005
540.0 9016
461.0 9027
537.0 9039
475.0 9051
498.0 9062
512.0 9073
475.0 9084
537.0 9096
432.0 9108
525.0 9119
698.0 9131
786.0 9142
568.0 9153
500.0 9164
557.0 9177
454.0 9188
528.0 9199
482.0 9210
495.0 9222
520.0 9234
478.0 9245
549.0 9256
468.0 9268
542.0 9279
507.0 9290
521.0 9303
550.0 9314
510.0 9325
583.0 9336
504.0 9348
575.0 9359
539.0 9371
517.0 9382
531.0 9394
460.0 9405
528.0 9416
445.0 9427
504.0 9440
483.0 9451
471.0 9462
510.0 9474
445.0 9485
523.0 9496
447.0 9508
501.0 9520
489.0 9531
480.0 9542
523.0 9553
457.0 9566
536.0 9577
462.0 9588
507.0 9600
496.0 9611
484.0 9622
528.0 9634
458.0 9646
534.0 9657
469.0 9668
505.0 9679
500.0 9691
485.0 9703
527.0 9714
456.0 9725
538.0 9737
475.0 9748
509.0 9759
514.0 9772
491.0 9783
548.0 9794
471.0 9805
559.0 9817
491.0 9828
516.0 9840
519.0 9851
480.0 9863
534.0 9874
456.0 9885
526.0 9896
479.0 9909
498.0 9920
508.0 9931
436.0 9943
649.0 9954
781.0 9966
681.0 9977
490.0 9989
530.0 10000
530.0 10012
456.0 10024
525.0 10038
507.0 10050
481.0 10062
549.0 10075
483.0 10087
513.0 10100
544.0 10113
481.0 10125
556.0 10137
545.0 10149
530.0 10162
591.0 10175
527.0 10187
546.0 10200
556.0 10212
469.0 10224
521.0 10237
495.0 10250
465.0 10262
527.0 10274
463.0 10287
481.0 10300
517.0 10312
448.0 10324
512.0 10337
499.0 10349
474.0 10361
539.0 10375
463.0 10387
485.0 10399
523.0 10412
455.0 10424
517.0 10437
501.0 10449
469.0 10462
536.0 10474
470.0 10486
489.0 10500
524.0 10512
456.0 10524
522.0 10536
506.0 10549
471.0 10561
544.0 10574
489.0 10587
510.0 10599
553.0 10611
479.0 10624
533.0 10637
510.0 10649
476.0 10661
536.0 10674
476.0 10686
495.0 10699
530.0 10712
458.0 10724
485.0 10736
525.0 10748
768.0 10761
745.0 10774
489.0 10786
522.0 10799
534.0 10811
458.0 10823
510.0 10836
511.0 10849
472.0 10861
542.0 10873
488.0 10886
503.0 10899
548.0 10911
480.0 10924
548.0 10936
555.0 10948
516.0 10960
588.0 10974
533.0 10986
534.0 10998
562.0 11011
463.0 11023
509.0 11036
499.0 11048
455.0 11061
521.0 11073
468.0 11085
472.0 11099
522.0 11111
453.0 11123
503.0 11136
504.0 11148
459.0 11160
535.0 11173
479.0 11186
483.0 11198
528.0 11210
451.0 11223
506.0 11236
507.0 11248
462.0 11260
529.0 11273
477.0 11285
484.0 11298
530.0 11311
455.0 11323
510.0 11335
515.0 11347
465.0 11360
536.0 11373
489.0 11385
503.0 11398
547.0 11410
475.0 11422
531.0 11436
532.0 11448
476.0 11460
535.0 11472
484.0 11485
491.0 11498
534.0 11510
461.0 11523
511.0 11535
507.0 11547
420.0 11559
626.0 11573
815.0 11585
603.0 11597
551.0 11610
485.0 11622
512.0 11635
510.0 11648
460.0 11660
535.0 11672
500.0 11684
500.0 11698
553.0 11710
481.0 11722
531.0 11735
543.0 11747
497.0 11759
575.0 11772
540.0 11785
540.0 11797
588.0 11809
506.0 11822
530.0 11835
525.0 11847
454.0 11859
523.0 11872
478.0 11884
474.0 11897
526.0 11910
452.0 11922
496.0 11934
508.0 11947
453.0 11959
521.0 11972
484.0 11984
476.0 11997
534.0 12009
459.0 12021
497.0 12035
518.0 12047
458.0 12059
527.0 12071
488.0 12084
476.0 12097
534.0 12109
458.0 12122
498.0 12134
519.0 12146
458.0 12158
527.0 12172
494.0 12184
481.0 12196
545.0 12209
467.0 12221
508.0 12234
546.0 12247
476.0 12259
539.0 12271
504.0 12283
482.0 12297
533.0 12309
465.0 12321
501.0 12334
517.0 12346
460.0 12358
492.0 12371
527.0 12384
784.0 12396
733.0 12408
477.0 12421
530.0 12434
522.0 12446
449.0 12459
519.0 12471
500.0 12483
481.0 12496
543.0 12509
472.0 12521
521.0 12533
548.0 12546
477.0 12558
560.0 12571
542.0 12583
525.0 12596
595.0 12608
523.0 12620
550.0 12634
558.0 12646
466.0 12658
529.0 12670
493.0 12683
472.0 12696
529.0 12708
457.0 12721
490.0 12733
521.0 12745
448.0 12758
527.0 12771
496.0 12783
472.0 12795
538.0 12808
465.0 12820
493.0 12833
520.0 12846
449.0 12858
522.0 12870
496.0 12882
469.0 12896
539.0 12908
464.0 12920
489.0 12933
527.0 12945
457.0 12957
532.0 12971
516.0 12983
491.0 12995
560.0 13007
476.0 13020
493.0 13033
527.0 13045
448.0 13058
513.0 13070
494.0 13082
463.0 13095
536.0 13108
432.0 13120
533.0 13132
843.0 13145
627.0 13157
527.0 13170
531.0 13182
475.0 13195
535.0 13207
472.0 13219
487.0 13233
531.0 13245
455.0 13257
531.0 13270
524.0 13282
491.0 13295
562.0 13307
507.0 13320
532.0 13332
575.0 13344
504.0 13357
567.0 13370
546.0 13382
489.0 13394
539.0 13407
471.0 13419
479.0 13432
516.0 13445
446.0 13457
506.0 13469
495.0 13481
461.0 13495
539.0 13507
471.0 13519
487.0 13532
527.0 13544
453.0 13556
518.0 13570
507.0 13582
469.0 13594
540.0 13606
482.0 13619
497.0 13632
538.0 13644
460.0 13657
518.0 13669
517.0 13681
468.0 13694
539.0 13707
487.0 13719
493.0 13731
547.0 13744
472.0 13756
530.0 13769
538.0 13782
484.0 13794
552.0 13806
484.0 13818
488.0 13832
533.0 13844
454.0 13856
507.0 13869
511.0 13881
460.0 13894
489.0 13906
589.0 13919
814.0 13931
646.0 13943
482.0 13956
536.0 13969
522.0 13981
478.0 13993
534.0 14006
493.0 14018
498.0 14031
552.0 14044
476.0 14056
529.0 14068
546.0 14081
497.0 14094
573.0 14106
530.0 14118
542.0 14131
593.0 14143
518.0 14155
556.0 14169
542.0 14181
474.0 14193
521.0 14205
478.0 14218
477.0 14231
527.0 14243
453.0 14256
500.0 14268
508.0 14280
456.0 14294
528.0 14306
487.0 14318
481.0 14330
525.0 14343
459.0 14355
503.0 14368
510.0 14381
463.0 14393
526.0 14405
485.0 14417
493.0 14431
546.0 14443
465.0 14455
508.0 14468
525.0 14480
462.0 14493
538.0 14505
504.0 14518
496.0 14530
543.0 14542
486.0 14555
519.0 14568
532.0 14580
485.0 14593
545.0 14605
497.0 14617
486.0 14630
536.0 14643
442.0 14655
495.0 14667
524.0 14680
455.0 14693
523.0 14705
454.0 14717
608.0 14730
845.0 14742
545.0 14754
530.0 14768
539.0 14780
456.0 14792
524.0 14804
497.0 14817
487.0 14830
546.0 14842
478.0 14855
517.0 14867
543.0 14879
486.0 14893
554.0 14905
532.0 14917
532.0 14929
613.0 14942
516.0 14954
548.0 14967
558.0 14980
472.0 14992
521.0 15004
490.0 15016
468.0 15030
527.0 15042
457.0 15054
481.0 15067
506.0 15079
443.0 15092
499.0 15105
487.0 15117
456.0 15129
515.0 15141
450.0 15154
477.0 15167
502.0 15179
441.0 15192
498.0 15204
493.0 15216
452.0 15229
537.0 15242
451.0 15254
467.0 15266
492.0 15279
466.0 15292
514.0 15304
510.0 15316
469.0 15329
523.0 15341
493.0 15353
521.0 15367
550.0 15379
488.0 15391
551.0 15404
536.0 15416
491.0 15429
556.0 15441
485.0 15454
494.0 15466
536.0 15478
442.0 15492
524.0 15504
498.0 15516
504.0 15528
846.0 15541
701.0 15553
503.0 15566
608.0 15579
509.0 15591
561.0 15603
572.0 15616
528.0 15629
582.0 15641
492.0 15653
500.0 15666
541.0 15678
480.0 15691
535.0 15704
553.0 15716
525.0 15728
573.0 15740
524.0 15753
530.0 15766
567.0 15778
483.0 15791
516.0 15803
497.0 15815
450.0 15828
506.0 15841
457.0 15853
463.0 15865
512.0 15878
430.0 15891
483.0 15903
484.0 15916
436.0 15928
514.0 15940
461.0 15952
458.0 15966
513.0 15978
439.0 15990
476.0 16003
497.0 16015
440.0 16028
516.0 16040
467.0 16053
464.0 16065
510.0 16077
440.0 16091
468.0 16103
487.0 16115
444.0 16128
527.0 16140
481.0 16152
482.0 16165
541.0 16178
449.0 16190
499.0 16202
503.0 16215
448.0 16228
519.0 16240
464.0 16252
468.0 16265
518.0 16277
444.0 16290
455.0 16303
579.0 16315
777.0 16327
646.0 16339
483.0 16352
510.0 16365
527.0 16377
451.0 16390
491.0 16402
510.0 16414
459.0 16428
521.0 16440
499.0 16452
484.0 16464
559.0 16477
490.0 16490
536.0 16502
547.0 16515
506.0 16527
574.0 16539
542.0 16551
526.0 16565
552.0 16577
472.0 16589
500.0 16602
496.0 16614
451.0 16627
515.0 16640
483.0 16652
468.0 16664
536.0 16676
451.0 16690
497.0 16702
503.0 16714
461.0 16727
517.0 16739
498.0 16751
478.0 16764
533.0 16777
471.0 16789
502.0 16801
522.0 16814
467.0 16827
543.0 16839
510.0 16851
491.0 16864
543.0 16876
476.0 16889
505.0 16902
537.0 16914
458.0 16926
518.0 16939
494.0 16951
469.0 16964
531.0