569.0 2
563.0 4
532.0 6
486.0 9
439.0 11
394.0 13
362.0 16
345.0 18
340.0 20
350.0 23
369.0 28
409.0 37
371.0 48
423.0 57
376.0 66
423.0 75
384.0 84
417.0 94
399.0 103
429.0 114
407.0 124
442.0 135
412.0 145
456.0 155
412.0 165
472.0 176
428.0 187
481.0 197
438.0 207
488.0 218
440.0 228
479.0 238
439.0 249
472.0 260
449.0 270
468.0 280
460.0 290
462.0 301
469.0 311
468.0 322
452.0 332
443.0 343
646.0 353
748.0 363
590.0 373
472.0 385
531.0 395
468.0 405
510.0 415
466.0 425
513.0 436
471.0 447
519.0 457
476.0 467
523.0 478
485.0 488
521.0 498
500.0 508
531.0 520
520.0 530
543.0 540
536.0 550
549.0 561
554.0 571
552.0 582
558.0 592
529.0 603
537.0 613
504.0 623
523.0 633
485.0 644
522.0 655
481.0 665
525.0 675
483.0 686
528.0 696
482.0 706
528.0 717
488.0 728
526.0 738
496.0 748
527.0 758
498.0 769
524.0 780
503.0 790
513.0 800
507.0 811
514.0 821
520.0 831
517.0 841
532.0 852
512.0 863
532.0 873
507.0 883
537.0 893
496.0 904
544.0 915
506.0 925
553.0 935
511.0 946
564.0 956
516.0 966
560.0 976
515.0 988
543.0 998
505.0 1008
526.0 1019
513.0 1031
504.0 1042
535.0 1054
494.0 1065
534.0 1077
454.0 1088
547.0 1099
785.0 1111
688.0 1123
537.0 1134
510.0 1145
539.0 1157
492.0 1168
518.0 1180
515.0 1191
499.0 1203
539.0 1214
497.0 1225
542.0 1236
514.0 1249
530.0 1260
533.0 1271
521.0 1283
559.0 1294
520.0 1305
579.0 1317
544.0 1329
560.0 1340
555.0 1351
519.0 1362
539.0 1374
485.0 1386
523.0 1397
486.0 1409
503.0 1420
502.0 1431
482.0 1442
522.0 1455
479.0 1466
519.0 1477
490.0 1488
500.0 1500
505.0 1512
480.0 1523
522.0 1534
474.0 1546
523.0 1557
487.0 1568
496.0 1581
505.0 1592
477.0 1603
517.0 1614
476.0 1626
520.0 1637
495.0 1649
510.0 1660
522.0 1672
494.0 1683
524.0 1694
471.0 1705
511.0 1718
488.0 1729
489.0 1740
502.0 1752
474.0 1763
518.0 1774
471.0 1786
460.0 1798
569.0 1809
793.0 1820
641.0 1831
478.0 1843
550.0 1855
477.0 1866
508.0 1878
485.0 1889
489.0 1900
507.0 1912
481.0 1924
521.0 1935
491.0 1946
525.0 1957
503.0 1969
514.0 1981
532.0 1992
506.0 2003
560.0 2015
520.0 2026
554.0 2037
533.0 2050
522.0 2061
520.0 2072
475.0 2083
509.0 2095
463.0 2106
501.0 2118
481.0 2129
485.0 2141
499.0 2152
468.0 2163
515.0 2174
472.0 2187
505.0 2198
488.0 2209
486.0 2221
505.0 2232
475.0 2244
515.0 2255
469.0 2267
501.0 2278
486.0 2289
484.0 2300
504.0 2313
472.0 2324
518.0 2335
479.0 2347
509.0 2358
495.0 2369
492.0 2381
519.0 2393
488.0 2404
539.0 2415
497.0 2426
531.0 2438
522.0 2450
503.0 2461
522.0 2472
480.0 2484
524.0 2495
484.0 2506
512.0 2519
498.0 2530
494.0 2541
516.0 2552
432.0 2564
589.0 2575
769.0 2587
662.0 2598
501.0 2610
516.0 2621
525.0 2632
483.0 2644
527.0 2656
490.0 2667
512.0 2678
507.0 2690
496.0 2701
533.0 2713
497.0 2724
541.0 2736
511.0 2747
537.0 2758
543.0 2769
533.0 2782
573.0 2793
530.0 2804
582.0 2816
531.0 2827
533.0 2838
514.0 2850
491.0 2862
516.0 2873
469.0 2884
512.0 2895
478.0 2907
500.0 2919
496.0 2930
478.0 2941
518.0 2953
475.0 2964
515.0 2976
485.0 2988
499.0 2999
499.0 3010
474.0 3021
510.0 3033
473.0 3045
515.0 3056
483.0 3067
498.0 3079
499.0 3090
480.0 3101
518.0 3113
477.0 3125
520.0 3136
498.0 3147
514.0 3159
515.0 3170
498.0 3182
532.0 3193
485.0 3205
515.0 3216
486.0 3227
491.0 3238
498.0 3251
471.0 3262
511.0 3273
466.0 3284
508.0 3296
437.0 3307
560.0 3319
800.0 3331
634.0 3342
521.0 3353
506.0 3364
522.0 3377
490.0 3388
497.0 3399
506.0 3410
484.0 3422
526.0 3433
484.0 3445
529.0 3457
501.0 3468
523.0 3479
528.0 3490
508.0 3502
561.0 3514
522.0 3525
561.0 3536
543.0 3548
548.0 3559
541.0 3570
499.0 3582
522.0 3594
473.0 3605
505.0 3616
484.0 3628
487.0 3639
503.0 3651
472.0 3662
511.0 3674
471.0 3685
507.0 3696
483.0 3708
495.0 3720
505.0 3731
472.0 3742
515.0 3753
473.0 3765
511.0 3777
490.0 3788
488.0 3800
506.0 3811
475.0 3822
517.0 3833
477.0 3846
508.0 3857
489.0 3868
486.0 3879
506.0 3891
471.0 3902
521.0 3914
480.0 3926
515.0 3937
504.0 3948
505.0 3959
526.0 3971
488.0 3983
530.0 3994
481.0 4005
512.0 4017
494.0 4028
484.0 4039
515.0 4051
475.0 4063
520.0 4074
471.0 4085
465.0 4097
610.0 4109
783.0 4120
612.0 4131
480.0 4143
553.0 4154
486.0 4165
514.0 4177
502.0 4189
494.0 4200
529.0 4211
486.0 4222
533.0 4234
500.0 4246
530.0 4257
526.0 4269
522.0 4280
554.0 4291
518.0 4302
575.0 4315
538.0 4326
564.0 4337
557.0 4348
522.0 4360
537.0 4371
483.0 4383
519.0 4395
477.0 4406
499.0 4417
492.0 4428
473.0 4441
503.0 4452
458.0 4463
498.0 4474
467.0 4486
490.0 4497
488.0 4509
474.0 4520
503.0 4532
470.0 4543
511.0 4554
473.0 4566
492.0 4578
492.0 4589
477.0 4600
509.0 4612
466.0 4623
510.0 4634
481.0 4646
498.0 4658
490.0 4669
474.0 4680
509.0 4691
469.0 4703
515.0 4715
487.0 4726
508.0 4738
512.0 4749
496.0 4760
526.0 4771
481.0 4784
519.0 4795
480.0 4806
493.0 4817
499.0 4829
474.0 4841
503.0 4852
454.0 4864
497.0 4875
427.0 4886
511.0 4897
747.0 4910
647.0 4921
510.0 4932
489.0 4943
522.0 4955
482.0 4966
497.0 4978
502.0 4989
480.0 5001
522.0 5012
479.0 5023
520.0 5035
499.0 5047
505.0 5058
505.0 5069
489.0 5081
542.0 5092
507.0 5103
555.0 5115
533.0 5127
542.0 5138
544.0 5149
496.0 5160
529.0 5173
480.0 5184
513.0 5195
488.0 5207
492.0 5218
509.0 5229
484.0 5241
524.0 5253
479.0 5264
519.0 5275
495.0 5286
498.0 5298
520.0 5310
487.0 5321
532.0 5332
490.0 5344
523.0 5355
500.0 5366
508.0 5379
523.0 5390
497.0 5401
543.0 5412
493.0 5424
529.0 5435
510.0 5447
516.0 5458
530.0 5470
498.0 5481
537.0 5492
499.0 5504
536.0 5516
519.0 5527
522.0 5538
540.0 5550
506.0 5561
563.0 5573
518.0 5584
552.0 5596
549.0 5607
542.0 5618
552.0 5629
516.0 5642
559.0 5653
511.0 5664
541.0 5676
521.0 5687
516.0 5698
542.0 5710
500.0 5722
513.0 5733
515.0 5744
783.0 5755
734.0 5767
529.0 5779
564.0 5790
507.0 5801
546.0 5813
502.0 5824
527.0 5835
520.0 5848
507.0 5859
538.0 5870
500.0 5881
546.0 5893
510.0 5905
541.0 5916
535.0 5927
531.0 5939
562.0 5950
528.0 5961
578.0 5974
540.0 5985
557.0 5996
535.0 6007
502.0 6019
520.0 6030
475.0 6042
514.0 6053
474.0 6065
491.0 6076
490.0 6087
475.0 6098
506.0 6111
471.0 6122
508.0 6133
477.0 6145
499.0 6156
490.0 6167
480.0 6179
510.0 6191
470.0 6202
515.0 6213
483.0 6224
496.0 6236
495.0 6248
476.0 6259
507.0 6270
467.0 6282
509.0 6293
481.0 6305
499.0 6317
496.0 6328
481.0 6339
521.0 6350
480.0 6362
526.0 6374
496.0 6385
515.0 6396
508.0 6408
482.0 6419
516.0 6430
470.0 6443
509.0 6454
475.0 6465
492.0 6476
493.0 6488
471.0 6499
469.0 6511
523.0 6522
804.0 6534
656.0 6545
492.0 6556
520.0 6567
483.0 6580
515.0 6591
464.0 6602
511.0 6614
486.0 6625
492.0 6637
505.0 6648
484.0 6660
530.0 6671
487.0 6682
525.0 6693
516.0 6706
524.0 6717
542.0 6728
521.0 6739
567.0 6751
519.0 6762
550.0 6774
502.0 6786
502.0 6797
495.0 6808
468.0 6819
503.0 6831
465.0 6843
499.0 6854
471.0 6865
481.0 6877
490.0 6888
464.0 6899
511.0 6912
464.0 6923
500.0 6934
478.0 6945
485.0 6957
495.0 6968
466.0 6980
512.0 6991
470.0 7003
506.0 7014
487.0 7025
489.0 7037
503.0 7049
472.0 7060
513.0 7071
475.0 7083
502.0 7094
491.0 7106
488.0 7117
514.0 7129
480.0 7140
531.0 7151
495.0 7162
527.0 7175
505.0 7186
492.0 7197
513.0 7208
473.0 7220
511.0 7231
478.0 7243
510.0 7255
495.0 7266
497.0 7277
473.0 7288
526.0 7300
824.0 7312
651.0 7323
522.0 7334
532.0 7346
506.0 7357
513.0 7369
476.0 7380
525.0 7392
486.0 7403
518.0 7414
509.0 7426
503.0 7438
533.0 7449
494.0 7460
544.0 7472
514.0 7483
543.0 7494
546.0 7506
538.0 7518
576.0 7529
538.0 7540
566.0 7552
510.0 7563
519.0 7575
502.0 7586
484.0 7598
516.0 7609
470.0 7620
518.0 7631
478.0 7644
501.0 7655
496.0 7666
489.0 7677
516.0 7689
478.0 7700
519.0 7712
480.0 7724
499.0 7735
498.0 7746
485.0 7757
509.0 7770
469.0 7781
512.0 7792
482.0 7803
498.0 7815
492.0 7826
481.0 7838
514.0 7849
469.0 7861
517.0 7872
483.0 7883
501.0 7895
507.0 7907
492.0 7918
532.0 7929
493.0 7941
532.0 7952
490.0 7963
504.0 7975
499.0 7987
480.0 7998
513.0 8009
468.0 8020
511.0 8032
483.0 8044
477.0 8055
472.0 8067
643.0 8078
781.0 8089
537.0 8101
518.0 8113
505.0 8124
498.0 8135
499.0 8146
479.0 8158
514.0 8170
477.0 8181
513.0 8193
491.0 8204
507.0 8215
520.0 8226
502.0 8239
545.0 8250
507.0 8261
554.0 8272
534.0 8284
547.0 8295
563.0 8307
525.0 8318
547.0 8330
484.0 8341
513.0 8352
481.0 8364
488.0 8376
492.0 8387
466.0 8398
507.0 8410
460.0 8421
501.0 8432
481.0 8444
484.0 8456
500.0 8467
470.0 8478
507.0 8489
467.0 8502
510.0 8513
489.0 8524
491.0 8536
501.0 8547
471.0 8558
513.0 8570
471.0 8582
508.0 8593
490.0 8604
495.0 8615
514.0 8627
489.0 8639
536.0 8650
493.0 8662
516.0 8673
493.0 8684
490.0 8695
507.0 8708
471.0 8719
518.0 8730
476.0 8741
506.0 8753
495.0 8764
457.0 8776
514.0 8787
717.0 8799
756.0 8810
508.0 8821
536.0 8834
512.0 8845
496.0 8856
515.0 8867
477.0 8879
517.0 8890
480.0 8902
513.0 8913
506.0 8925
504.0 8936
533.0 8947
502.0 8958
544.0 8971
518.0 8982
553.0 8993
552.0 9005
541.0 9016
571.0 9027
506.0 9039
547.0 9051
484.0 9062
512.0 9073
494.0 9084
486.0 9096
515.0 9108
479.0 9119
532.0 9131
489.0 9142
515.0 9153
515.0 9164
510.0 9177
540.0 9188
497.0 9199
543.0 9210
501.0 9222
524.0 9234
515.0 9245
502.0 9256
532.0 9268
490.0 9279
527.0 9290
492.0 9303
512.0 9314
509.0 9325
493.0 9336
518.0 9348
477.0 9359
519.0 9371
488.0 9382
510.0 9394
509.0 9405
498.0 9416
536.0 9427
497.0 9440
530.0 9451
489.0 9462
492.0 9474
494.0 9485
473.0 9496
513.0 9508
466.0 9520
508.0 9531
484.0 9542
448.0 9553
559.0 9566
783.0 9577
678.0 9588
473.0 9600
546.0 9611
487.0 9622
497.0 9634
499.0 9646
474.0 9657
532.0 9668
476.0 9679
527.0 9691
504.0 9703
515.0 9714
531.0 9725
521.0 9737
562.0 9748
533.0 9759
581.0 9772
561.0 9783
576.0 9794
587.0 9805
544.0 9817
568.0 9828
501.0 9840
527.0 9851
498.0 9863
498.0 9874
499.0 9885
470.0 9896
513.0 9909
462.0 9920
501.0 9931
478.0 9943
483.0 9954
488.0 9966
459.0 9977
496.0 9989
463.0 10000
457.0 10012
500.0 10024
450.0 10038
474.0 10050
436.0 10062
476.0 10075
525.0 10087
485.0 10100
512.0 10113
509.0 10125
489.0 10137
525.0 10149
508.0 10162
511.0 10175
535.0 10187
507.0 10200
532.0 10212
506.0 10224
484.0 10237
532.0 10250
495.0 10262
498.0 10274
523.0 10287
477.0 10300
512.0 10312
490.0 10324
459.0 10337
768.0 10349
698.0 10361
506.0 10375
545.0 10387
478.0 10399
509.0 10412
500.0 10424
481.0 10437
527.0 10449
509.0 10462
508.0 10474
536.0 10486
499.0 10500
543.0 10512
541.0 10524
522.0 10536
570.0 10549
548.0 10561
557.0 10574
569.0 10587
506.0 10599
523.0 10611
498.0 10624
474.0 10637
514.0 10649
477.0 10661
478.0 10674
507.0 10686
453.0 10699
493.0 10712
489.0 10724
466.0 10736
499.0 10748
463.0 10761
474.0 10774
493.0 10786
452.0 10799
483.0 10811
471.0 10823
454.0 10836
494.0 10849
457.0 10861
466.0 10873
491.0 10886
457.0 10899
493.0 10911
481.0 10924
462.0 10936
505.0 10948
468.0 10960
480.0 10974
501.0 10986
456.0 10998
492.0 11011
496.0 11023
481.0 11036
523.0 11048
492.0 11061
502.0 11073
515.0 11085
472.0 11099
504.0 11111
489.0 11123
469.0 11136
510.0 11148
478.0 11160
487.0 11173
466.0 11186
535.0 11198
817.0 11210
602.0 11223
492.0 11236
544.0 11248
491.0 11260
492.0 11273
517.0 11285
473.0 11298
515.0 11311
506.0 11323
492.0 11335
536.0 11347
507.0 11360
523.0 11373
547.0 11385
513.0 11398
563.0 11410
549.0 11422
538.0 11436
564.0 11448
510.0 11460
503.0 11472
508.0 11485
466.0 11498
499.0 11510
483.0 11523
464.0 11535
510.0 11547
473.0 11559
491.0 11573
509.0 11585
473.0 11597
508.0 11610
493.0 11622
485.0 11635
518.0 11648
481.0 11660
497.0 11672
510.0 11684
477.0 11698
512.0 11710
498.0 11722
484.0 11735
522.0 11747
483.0 11759
503.0 11772
514.0 11785
480.0 11797
519.0 11809
505.0 11822
495.0 11835
529.0 11847
497.0 11859
517.0 11872
531.0 11884
500.0 11897
540.0 11910
517.0 11922
499.0 11934
532.0 11947
485.0 11959
502.0 11972
514.0 11984
478.0 11997
518.0 12009
474.0 12021
482.0 12035
774.0 12047
689.0 12059
511.0 12071
548.0 12084
488.0 12097
522.0 12109
506.0 12122
491.0 12134
531.0 12146
491.0 12158
512.0 12172
537.0 12184
497.0 12196
541.0 12209
532.0 12221
532.0 12234
575.0 12247
542.0 12259
562.0 12271
564.0 12283
512.0 12297
533.0 12309
504.0 12321
482.0 12334
519.0 12346
478.0 12358
493.0 12371
506.0 12384
471.0 12396
508.0 12408
487.0 12421
482.0 12434
521.0 12446
480.0 12459
501.0 12471
510.0 12483
481.0 12496
513.0 12509
493.0 12521
480.0 12533
517.0 12546
480.0 12558
500.0 12571
508.0 12583
480.0 12596
519.0 12608
502.0 12620
490.0 12634
526.0 12646
486.0 12658
503.0 12670
522.0 12683
490.0 12696
535.0 12708
517.0 12721
510.0 12733
539.0 12745
490.0 12758
511.0 12771
512.0 12783
477.0 12795
520.0 12808
494.0 12820
483.0 12833
510.0 12846
449.0 12858
671.0 12870
777.0 12882
510.0 12896
545.0 12908
508.0 12920
484.0 12933
515.0 12945
480.0 12957
501.0 12971
513.0 12983
486.0 12995
529.0 13007
510.0 13020
514.0 13033
549.0 13045
514.0 13058
544.0 13070
554.0 13082
525.0 13095
568.0 13108
529.0 13120
505.0 13132
523.0 13145
474.0 13157
497.0 13170
502.0 13182
469.0 13195
510.0 13207
486.0 13219
485.0 13233
514.0 13245
477.0 13257
498.0 13270
498.0 13282
478.0 13295
518.0 13307
489.0 13320
488.0 13332
524.0 13344
477.0 13357
508.0 13370
507.0 13382
481.0 13394
517.0 13407
501.0 13419
501.0 13432
528.0 13445
490.0 13457
506.0 13469
516.0 13481
481.0 13495
521.0 13507
495.0 13519
497.0 13532
537.0 13544
497.0 13556
529.0 13570
529.0 13582
496.0 13594
530.0 13606
498.0 13619
494.0 13632
522.0 13644
482.0 13657
513.0 13669
512.0 13681
449.0 13694
547.0 13707
780.0 13719
661.0 13731
532.0 13744
517.0 13756
514.0 13769
516.0 13782
484.0 13794
530.0 13806
498.0 13818
502.0 13832
535.0 13844
493.0 13856
527.0 13869
530.0 13881
506.0 13894
557.0 13906
538.0 13919
545.0 13931
574.0 13943
522.0 13956
531.0 13969
516.0 13981
475.0 13993
508.0 14006
470.0 14018
479.0 14031
505.0 14044
466.0 14056
492.0 14068
494.0 14081
465.0 14094
510.0 14106
478.0 14118
481.0 14131
509.0 14143
468.0 14155
500.0 14169
493.0 14181
463.0 14193
511.0 14205
481.0 14218
488.0 14231
516.0 14243
469.0 14256
506.0 14268
505.0 14280
481.0 14294
519.0 14306
490.0 14318
496.0 14330
515.0 14343
478.0 14355
515.0 14368
511.0 14381
498.0 14393
544.0 14405
510.0 14417
515.0 14431
530.0 14443
482.0 14455
511.0 14468
510.0 14480
481.0 14493
527.0 14505
491.0 14518
456.0 14530
638.0 14542
771.0 14555
575.0 14568
529.0 14580
498.0 14593
523.0 14605
488.0 14617
490.0 14630
521.0 14643
480.0 14655
503.0 14667
527.0 14680
498.0 14693
547.0 14705
518.0 14717
533.0 14730
556.0 14742
529.0 14754
560.0 14768
561.0 14780
519.0 14792
549.0 14804
492.0 14817
495.0 14830
510.0 14842
470.0 14855
500.0 14867
490.0 14879
468.0 14893
511.0 14905
477.0 14917
485.0 14929
509.0 14942
467.0 14954
505.0 14967
499.0 14980
473.0 14992
515.0 15004
477.0 15016
487.0 15030
511.0 15042
466.0 15054
503.0 15067
496.0 15079
479.0 15092
519.0 15105
480.0 15117
489.0 15129
520.0 15141
484.0 15154
522.0 15167
517.0 15179
482.0 15192
528.0 15204
480.0 15216
490.0 15229
508.0 15242
471.0 15254
502.0 15266
494.0 15279
463.0 15292
494.0 15304
686.0 15316
723.0 15329
536.0 15341
488.0 15353
522.0 15367
498.0 15379
479.0 15391
522.0 15404
486.0 15416
499.0 15429
525.0 15441
489.0 15454
527.0 15466
517.0 15478
509.0 15492
557.0 15504
523.0 15516
539.0 15528
563.0 15541
526.0 15553
539.0 15566
515.0 15579
476.0 15591
517.0 15603
474.0 15616
484.0 15629
506.0 15641
467.0 15653
502.0 15666
492.0 15678
476.0 15691
508.0 15704
480.0 15716
493.0 15728
510.0 15740
472.0 15753
511.0 15766
496.0 15778
478.0 15791
518.0 15803
477.0 15815
488.0 15828
506.0 15841
468.0 15853
518.0 15865
510.0 15878
501.0 15891
544.0 15903
506.0 15916
502.0 15928
532.0 15940
474.0 15952
516.0 15966
500.0 15978
484.0 15990
524.0 16003
483.0 16015
458.0 16028
642.0 16040
782.0 16053
582.0 16065
527.0 16077
508.0 16091
529.0 16103
502.0 16115
514.0 16128
529.0 16140
493.0 16152
521.0 16165
514.0 16178
462.0 16190
509.0 16202
483.0 16215
489.0 16228
529.0 16240
473.0 16252
552.0 16265
523.0 16277
515.0 16290
532.0 16303
486.0 16315
483.0 16327
515.0 16339
474.0 16352
508.0 16365
504.0 16377
487.0 16390
536.0 16402
492.0 16414
514.0 16428
523.0 16440
478.0 16452
533.0 16464
511.0 16477
497.0 16490
531.0 16502
484.0 16515
504.0 16527
517.0 16539
483.0 16551
522.0 16565
501.0 16577
488.0 16589
528.0 16602
500.0 16614
513.0 16627
531.0 16640
495.0 16652
520.0 16664
487.0 16676
477.0 16690
505.0 16702
466.0 16714
471.0 16727
496.0 16739
454.0 16751
454.0 16764
555.0 16777
750.0 16789
585.0 16801
463.0 16814
496.0 16827
491.0 16839
461.0 16851
493.0 16864
482.0 16876
482.0 16889
511.0 16902
487.0 16914
506.0 16926
520.0 16939
479.0 16951
537.0 16964
515.0