558.0 2
566.0 4
549.0 6
511.0 9
459.0 11
413.0 13
386.0 16
382.0 18
401.0 20
427.0 23
447.0 28
418.0 37
435.0 48
444.0 57
436.0 66
470.0 75
429.0 84
480.0 94
423.0 103
474.0 114
413.0 124
475.0 135
422.0 145
467.0 155
437.0 165
466.0 176
455.0 187
467.0 197
466.0 207
463.0 218
474.0 228
454.0 238
478.0 249
461.0 260
489.0 270
462.0 280
500.0 290
459.0 301
508.0 311
462.0 322
523.0 332
475.0 343
538.0 353
479.0 363
547.0 373
496.0 385
540.0 395
491.0 405
529.0 415
482.0 425
513.0 436
499.0 447
510.0 457
491.0 467
511.0 478
489.0 488
460.0 498
520.0 508
720.0 520
742.0 530
522.0 540
517.0 550
493.0 561
512.0 571
469.0 582
518.0 592
469.0 603
523.0 613
475.0 623
531.0 633
478.0 644
542.0 655
491.0 665
549.0 675
499.0 686
556.0 696
520.0 706
553.0 717
532.0 728
559.0 738
552.0 748
560.0 758
547.0 769
529.0 780
527.0 790
498.0 800
504.0 811
483.0 821
512.0 831
476.0 841
520.0 852
474.0 863
522.0 873
470.0 883
524.0 893
467.0 904
522.0 915
473.0 925
522.0 935
481.0 946
527.0 956
483.0 966
520.0 976
481.0 988
510.0 998
487.0 1008
495.0 1019
507.0 1031
473.0 1042
529.0 1054
474.0 1065
523.0 1077
492.0 1088
502.0 1099
514.0 1111
481.0 1123
535.0 1134
475.0 1145
538.0 1157
497.0 1168
518.0 1180
533.0 1191
507.0 1203
555.0 1214
497.0 1225
539.0 1236
511.0 1249
507.0 1260
516.0 1271
485.0 1283
527.0 1294
472.0 1305
531.0 1317
475.0 1329
487.0 1340
680.0 1351
761.0 1362
600.0 1374
488.0 1386
554.0 1397
500.0 1409
506.0 1420
514.0 1431
483.0 1442
532.0 1455
479.0 1466
539.0 1477
502.0 1488
521.0 1500
525.0 1512
513.0 1523
555.0 1534
510.0 1546
569.0 1557
529.0 1568
559.0 1581
567.0 1592
530.0 1603
562.0 1614
491.0 1626
521.0 1637
483.0 1649
498.0 1660
499.0 1672
472.0 1683
513.0 1694
464.0 1705
521.0 1718
477.0 1729
493.0 1740
499.0 1752
474.0 1763
513.0 1774
465.0 1786
519.0 1798
471.0 1809
488.0 1820
493.0 1831
464.0 1843
503.0 1855
461.0 1866
512.0 1878
471.0 1889
493.0 1900
508.0 1912
483.0 1924
522.0 1935
477.0 1946
529.0 1957
487.0 1969
509.0 1981
515.0 1992
496.0 2003
541.0 2015
490.0 2026
546.0 2037
508.0 2050
521.0 2061
512.0 2072
493.0 2083
521.0 2095
473.0 2106
527.0 2118
479.0 2129
506.0 2141
501.0 2152
446.0 2163
568.0 2174
756.0 2187
711.0 2198
485.0 2209
525.0 2221
502.0 2232
485.0 2244
510.0 2255
469.0 2267
523.0 2278
476.0 2289
507.0 2300
506.0 2313
495.0 2324
527.0 2335
495.0 2347
551.0 2358
514.0 2369
550.0 2381
550.0 2393
538.0 2404
582.0 2415
525.0 2426
571.0 2438
505.0 2450
520.0 2461
503.0 2472
481.0 2484
512.0 2495
468.0 2506
516.0 2519
467.0 2530
505.0 2541
490.0 2552
484.0 2564
512.0 2575
473.0 2587
522.0 2598
468.0 2610
497.0 2621
493.0 2632
481.0 2644
512.0 2656
465.0 2667
522.0 2678
470.0 2690
504.0 2701
497.0 2713
484.0 2724
515.0 2736
471.0 2747
527.0 2758
470.0 2769
509.0 2782
500.0 2793
493.0 2804
522.0 2816
476.0 2827
524.0 2838
472.0 2850
512.0 2862
507.0 2873
504.0 2884
536.0 2895
498.0 2907
552.0 2919
495.0 2930
532.0 2941
504.0 2953
500.0 2964
523.0 2976
481.0 2988
531.0 2999
480.0 3010
516.0 3021
462.0 3033
566.0 3045
810.0 3056
638.0 3067
537.0 3079
507.0 3090
527.0 3101
493.0 3113
490.0 3125
513.0 3136
478.0 3147
531.0 3159
482.0 3170
525.0 3182
505.0 3193
517.0 3205
537.0 3216
504.0 3227
562.0 3238
516.0 3251
567.0 3262
552.0 3273
555.0 3284
567.0 3296
512.0 3307
550.0 3319
484.0 3331
513.0 3342
488.0 3353
485.0 3364
500.0 3377
465.0 3388
516.0 3399
467.0 3410
515.0 3422
485.0 3433
489.0 3445
507.0 3457
475.0 3468
516.0 3479
467.0 3490
515.0 3502
484.0 3514
491.0 3525
502.0 3536
471.0 3548
521.0 3559
462.0 3570
516.0 3582
481.0 3594
491.0 3605
505.0 3616
471.0 3628
524.0 3639
466.0 3651
518.0 3662
486.0 3674
497.0 3685
509.0 3696
473.0 3708
516.0 3720
468.0 3731
521.0 3742
491.0 3753
505.0 3765
522.0 3777
491.0 3788
550.0 3800
490.0 3811
543.0 3822
503.0 3833
505.0 3846
517.0 3857
479.0 3868
517.0 3879
464.0 3891
517.0 3902
483.0 3914
477.0 3926
481.0 3937
638.0 3948
797.0 3959
530.0 3971
542.0 3983
506.0 3994
505.0 4005
510.0 4017
477.0 4028
522.0 4039
475.0 4051
532.0 4063
490.0 4074
509.0 4085
520.0 4097
499.0 4109
541.0 4120
502.0 4131
561.0 4143
519.0 4154
555.0 4165
563.0 4177
535.0 4189
578.0 4200
501.0 4211
544.0 4222
484.0 4234
497.0 4246
501.0 4257
467.0 4269
506.0 4280
448.0 4291
504.0 4302
470.0 4315
495.0 4326
496.0 4337
476.0 4348
521.0 4360
465.0 4371
519.0 4383
476.0 4395
494.0 4406
500.0 4417
477.0 4428
513.0 4441
463.0 4452
516.0 4463
477.0 4474
507.0 4486
497.0 4497
481.0 4509
520.0 4520
469.0 4532
524.0 4543
477.0 4554
495.0 4566
496.0 4578
468.0 4589
514.0 4600
468.0 4612
521.0 4623
481.0 4634
509.0 4646
514.0 4658
502.0 4669
542.0 4680
497.0 4691
550.0 4703
501.0 4715
520.0 4726
505.0 4738
485.0 4749
513.0 4760
464.0 4771
521.0 4784
466.0 4795
509.0 4806
502.0 4817
444.0 4829
556.0 4841
738.0 4852
734.0 4864
501.0 4875
534.0 4886
513.0 4897
484.0 4910
516.0 4921
473.0 4932
528.0 4943
488.0 4955
524.0 4966
517.0 4978
507.0 4989
543.0 5001
508.0 5012
551.0 5023
513.0 5035
555.0 5047
544.0 5058
542.0 5069
579.0 5081
525.0 5092
574.0 5103
505.0 5115
527.0 5127
506.0 5138
491.0 5149
514.0 5160
466.0 5173
519.0 5184
464.0 5195
504.0 5207
492.0 5218
479.0 5229
507.0 5241
467.0 5253
525.0 5264
473.0 5275
508.0 5286
494.0 5298
490.0 5310
516.0 5321
469.0 5332
522.0 5344
468.0 5355
509.0 5366
489.0 5379
487.0 5390
512.0 5401
467.0 5412
533.0 5424
473.0 5435
518.0 5447
501.0 5458
498.0 5470
514.0 5481
476.0 5492
525.0 5504
480.0 5516
520.0 5527
502.0 5538
502.0 5550
535.0 5561
485.0 5573
538.0 5584
476.0 5596
515.0 5607
493.0 5618
489.0 5629
519.0 5642
475.0 5653
523.0 5664
479.0 5676
493.0 5687
500.0 5698
728.0 5710
750.0 5722
506.0 5733
550.0 5744
485.0 5755
518.0 5767
491.0 5779
500.0 5790
513.0 5801
486.0 5813
532.0 5824
476.0 5835
529.0 5848
508.0 5859
513.0 5870
536.0 5881
500.0 5893
560.0 5905
513.0 5916
565.0 5927
548.0 5939
552.0 5950
550.0 5961
506.0 5974
533.0 5985
475.0 5996
519.0 6007
480.0 6019
490.0 6030
498.0 6042
464.0 6053
513.0 6065
460.0 6076
502.0 6087
485.0 6098
493.0 6111
506.0 6122
474.0 6133
521.0 6145
463.0 6156
515.0 6167
485.0 6179
489.0 6191
507.0 6202
475.0 6213
523.0 6224
463.0 6236
514.0 6248
482.0 6259
494.0 6270
505.0 6282
479.0 6293
526.0 6305
471.0 6317
523.0 6328
486.0 6339
506.0 6350
512.0 6362
495.0 6374
537.0 6385
498.0 6396
539.0 6408
500.0 6419
505.0 6430
508.0 6443
482.0 6454
518.0 6465
469.0 6476
518.0 6488
481.0 6499
492.0 6511
463.0 6522
546.0 6534
816.0 6545
630.0 6556
525.0 6567
493.0 6580
503.0 6591
501.0 6602
477.0 6614
523.0 6625
465.0 6637
526.0 6648
489.0 6660
509.0 6671
514.0 6682
503.0 6693
545.0 6706
500.0 6717
554.0 6728
519.0 6739
547.0 6751
548.0 6762
528.0 6774
568.0 6786
508.0 6797
548.0 6808
486.0 6819
499.0 6831
489.0 6843
473.0 6854
508.0 6865
456.0 6877
517.0 6888
469.0 6899
497.0 6912
495.0 6923
472.0 6934
510.0 6945
465.0 6957
516.0 6968
479.0 6980
500.0 6991
496.0 7003
484.0 7014
519.0 7025
468.0 7037
523.0 7049
476.0 7060
504.0 7071
499.0 7083
496.0 7094
532.0 7106
486.0 7117
541.0 7129
490.0 7140
505.0 7151
501.0 7162
481.0 7175
516.0 7186
465.0 7197
519.0 7208
469.0 7220
501.0 7231
468.0 7243
481.0 7255
742.0 7266
699.0 7277
557.0 7288
484.0 7300
521.0 7312
494.0 7323
480.0 7334
512.0 7346
467.0 7357
527.0 7369
473.0 7380
518.0 7392
508.0 7403
496.0 7414
535.0 7426
496.0 7438
555.0 7449
509.0 7460
560.0 7472
551.0 7483
541.0 7494
577.0 7506
511.0 7518
550.0 7529
479.0 7540
507.0 7552
490.0 7563
479.0 7575
506.0 7586
457.0 7598
520.0 7609
466.0 7620
506.0 7631
491.0 7644
486.0 7655
508.0 7666
461.0 7677
518.0 7689
465.0 7700
510.0 7712
489.0 7724
484.0 7735
508.0 7746
467.0 7757
516.0 7770
469.0 7781
514.0 7792
493.0 7803
500.0 7815
519.0 7826
489.0 7838
545.0 7849
478.0 7861
515.0 7872
493.0 7883
484.0 7895
511.0 7907
467.0 7918
524.0 7929
466.0 7941
511.0 7952
459.0 7963
526.0 7975
784.0 7987
670.0 7998
531.0 8009
480.0 8020
518.0 8032
483.0 8044
481.0 8055
497.0 8067
462.0 8078
510.0 8089
465.0 8101
521.0 8113
491.0 8124
504.0 8135
534.0 8146
499.0 8158
555.0 8170
511.0 8181
569.0 8193
547.0 8204
550.0 8215
564.0 8226
519.0 8239
546.0 8250
475.0 8261
514.0 8272
480.0 8284
484.0 8295
503.0 8307
465.0 8318
515.0 8330
466.0 8341
507.0 8352
488.0 8364
495.0 8376
508.0 8387
475.0 8398
525.0 8410
470.0 8421
519.0 8432
491.0 8444
494.0 8456
506.0 8467
470.0 8478
527.0 8489
466.0 8502
519.0 8513
486.0 8524
493.0 8536
510.0 8547
478.0 8558
521.0 8570
481.0 8582
536.0 8593
508.0 8604
518.0 8615
528.0 8627
496.0 8639
529.0 8650
472.0 8662
518.0 8673
483.0 8684
494.0 8695
503.0 8708
474.0 8719
518.0 8730
435.0 8741
608.0 8753
781.0 8764
639.0 8776
506.0 8787
501.0 8799
524.0 8810
461.0 8821
513.0 8834
481.0 8845
499.0 8856
508.0 8867
483.0 8879
528.0 8890
480.0 8902
542.0 8913
506.0 8925
531.0 8936
544.0 8947
522.0 8958
575.0 8971
520.0 8982
581.0 8993
533.0 9005
548.0 9016
530.0 9027
493.0 9039
530.0 9051
468.0 9062
525.0 9073
483.0 9084
502.0 9096
512.0 9108
483.0 9119
519.0 9131
466.0 9142
513.0 9153
471.0 9164
496.0 9177
490.0 9188
472.0 9199
512.0 9210
462.0 9222
513.0 9234
470.0 9245
494.0 9256
493.0 9268
471.0 9279
508.0 9290
462.0 9303
516.0 9314
484.0 9325
509.0 9336
505.0 9348
487.0 9359
523.0 9371
476.0 9382
529.0 9394
480.0 9405
520.0 9416
509.0 9427
490.0 9440
531.0 9451
486.0 9462
545.0 9474
496.0 9485
522.0 9496
511.0 9508
491.0 9520
523.0 9531
468.0 9542
522.0 9553
475.0 9566
505.0 9577
500.0 9588
479.0 9600
477.0 9611
532.0 9622
819.0 9634
631.0 9646
515.0 9657
525.0 9668
488.0 9679
514.0 9691
465.0 9703
525.0 9714
474.0 9725
513.0 9737
506.0 9748
493.0 9759
530.0 9772
487.0 9783
548.0 9794
499.0 9805
546.0 9817
534.0 9828
540.0 9840
573.0 9851
528.0 9863
585.0 9874
515.0 9885
539.0 9896
512.0 9909
489.0 9920
511.0 9931
457.0 9943
523.0 9954
471.0 9966
508.0 9977
489.0 9989
486.0 10000
515.0 10012
469.0 10024
510.0 10038
509.0 10050
470.0 10062
519.0 10075
477.0 10087
486.0 10100
514.0 10113
464.0 10125
508.0 10137
494.0 10149
473.0 10162
517.0 10175
465.0 10187
483.0 10200
505.0 10212
458.0 10224
508.0 10237
494.0 10250
480.0 10262
521.0 10274
477.0 10287
505.0 10300
526.0 10312
489.0 10324
541.0 10337
503.0 10349
480.0 10361
529.0 10375
469.0 10387
495.0 10399
507.0 10412
462.0 10424
515.0 10437
482.0 10449
445.0 10462
660.0 10474
740.0 10486
556.0 10500
518.0 10512
490.0 10524
525.0 10536
490.0 10549
479.0 10561
527.0 10574
476.0 10587
516.0 10599
521.0 10611
487.0 10624
545.0 10637
508.0 10649
521.0 10661
554.0 10674
516.0 10686
555.0 10699
566.0 10712
527.0 10724
561.0 10736
503.0 10748
497.0 10761
515.0 10774
458.0 10786
511.0 10799
491.0 10811
469.0 10823
521.0 10836
478.0 10849
492.0 10861
507.0 10873
460.0 10886
512.0 10899
498.0 10911
470.0 10924
523.0 10936
472.0 10948
488.0 10960
509.0 10974
462.0 10986
515.0 10998
489.0 11011
479.0 11023
520.0 11036
467.0 11048
491.0 11061
507.0 11073
466.0 11085
525.0 11099
500.0 11111
497.0 11123
542.0 11136
482.0 11148
516.0 11160
511.0 11173
471.0 11186
522.0 11198
487.0 11210
483.0 11223
526.0 11236
468.0 11248
472.0 11260
598.0 11273
767.0 11285
627.0 11298
490.0 11311
507.0 11323
524.0 11335
463.0 11347
511.0 11360
505.0 11373
476.0 11385
528.0 11398
489.0 11410
498.0 11422
535.0 11436
491.0 11448
549.0 11460
537.0 11472
518.0 11485
571.0 11498
531.0 11510
548.0 11523
552.0 11535
490.0 11547
522.0 11559
492.0 11573
468.0 11585
511.0 11597
464.0 11610
488.0 11622
508.0 11635
461.0 11648
517.0 11660
487.0 11672
476.0 11684
522.0 11698
456.0 11710
492.0 11722
497.0 11735
457.0 11747
515.0 11759
486.0 11772
482.0 11785
518.0 11797
472.0 11809
507.0 11822
512.0 11835
470.0 11847
520.0 11859
487.0 11872
485.0 11884
517.0 11897
469.0 11910
504.0 11922
507.0 11934
476.0 11947
526.0 11959
492.0 11972
499.0 11984
535.0 11997
476.0 12009
515.0 12021
508.0 12035
480.0 12047
522.0 12059
479.0 12071
485.0 12084
512.0 12097
472.0 12109
490.0 12122
509.0 12134
740.0 12146
721.0 12158
483.0 12172
523.0 12184
510.0 12196
466.0 12209
513.0 12221
499.0 12234
478.0 12247
525.0 12259
480.0 12271
508.0 12283
527.0 12297
494.0 12309
548.0 12321
528.0 12334
522.0 12346
570.0 12358
525.0 12371
552.0 12384
560.0 12396
497.0 12408
540.0 12421
492.0 12434
469.0 12446
513.0 12459
461.0 12471
497.0 12483
501.0 12496
466.0 12509
524.0 12521
485.0 12533
487.0 12546
515.0 12558
462.0 12571
512.0 12583
502.0 12596
468.0 12608
520.0 12620
478.0 12634
482.0 12646
507.0 12658
465.0 12670
512.0 12683
503.0 12696
477.0 12708
531.0 12721
487.0 12733
500.0 12745
510.0 12758
461.0 12771
504.0 12783
486.0 12795
466.0 12808
515.0 12820
478.0 12833
503.0 12846
523.0 12858
477.0 12870
524.0 12882
507.0 12896
495.0 12908
541.0 12920
493.0 12933
515.0 12945
520.0 12957
474.0 12971
489.0 12983
601.0 12995
778.0 13007
595.0 13020
482.0 13033
515.0 13045
503.0 13058
469.0 13070
518.0 13082
486.0 13095
494.0 13108
533.0 13120
483.0 13132
525.0 13145
524.0 13157
497.0 13170
549.0 13182
524.0 13195
537.0 13207
572.0 13219
527.0 13233
568.0 13245
542.0 13257
502.0 13270
536.0 13282
479.0 13295
493.0 13307
512.0 13320
464.0 13332
512.0 13344
493.0 13357
474.0 13370
518.0 13382
473.0 13394
490.0 13407
514.0 13419
462.0 13432
512.0 13445
489.0 13457
472.0 13469
510.0 13481
468.0 13495
491.0 13507
501.0 13519
463.0 13532
511.0 13544
482.0 13556
481.0 13570
518.0 13582
471.0 13594
505.0 13606
509.0 13619
481.0 13632
532.0 13644
507.0 13657
509.0 13669
545.0 13681
491.0 13694
514.0 13707
511.0 13719
474.0 13731
529.0 13744
486.0 13756
490.0 13769
522.0 13782
430.0 13794
634.0 13806
792.0 13818
555.0 13832
535.0 13844
503.0 13856
488.0 13869
513.0 13881
468.0 13894
509.0 13906
505.0 13919
479.0 13931
530.0 13943
492.0 13956
510.0 13969
539.0 13981
494.0 13993
555.0 14006
546.0 14018
535.0 14031
583.0 14044
536.0 14056
541.0 14068
536.0 14081
475.0 14094
519.0 14106
491.0 14118
475.0 14131
515.0 14143
461.0 14155
492.0 14169
503.0 14181
457.0 14193
516.0 14205
480.0 14218
473.0 14231
510.0 14243
456.0 14256
492.0 14268
493.0 14280
457.0 14294
510.0 14306
470.0 14318
481.0 14330
504.0 14343
457.0 14355
502.0 14368
492.0 14381
473.0 14393
528.0 14405
488.0 14417
515.0 14431
527.0 14443
474.0 14455
509.0 14468
488.0 14480
467.0 14493
520.0 14505
471.0 14518
490.0 14530
507.0 14542
418.0 14555
586.0 14568
790.0 14580
592.0 14593
528.0 14605
490.0 14617
495.0 14630
501.0 14643
457.0 14655
513.0 14667
489.0 14680
483.0 14693
533.0 14705
487.0 14717
519.0 14730
537.0 14742
503.0 14754
565.0 14768
538.0 14780
542.0 14792
585.0 14804
529.0 14817
548.0 14830
532.0 14842
474.0 14855
518.0 14867
481.0 14879
482.0 14893
514.0 14905
467.0 14917
508.0 14929
500.0 14942
469.0 14954
523.0 14967
480.0 14980
496.0 14992
519.0 15004
466.0 15016
514.0 15030
494.0 15042
464.0 15054
513.0 15067
475.0 15079
484.0 15092
512.0 15105
461.0 15117
512.0 15129
491.0 15141
476.0 15154
521.0 15167
475.0 15179
500.0 15192
523.0 15204
479.0 15216
544.0 15229
518.0 15242
499.0 15254
536.0 15266
477.0 15279
492.0 15292
508.0 15304
463.0 15316
519.0 15329
485.0 15341
470.0 15353
504.0 15367
666.0 15379
746.0 15391
531.0 15404
490.0 15416
527.0 15429
483.0 15441
484.0 15454
520.0 15466
465.0 15478
512.0 15492
514.0 15504
483.0 15516
544.0 15528
508.0 15541
518.0 15553
551.0 15566
508.0 15579
558.0 15591
556.0 15603
531.0 15616
571.0 15629
515.0 15641
507.0 15653
519.0 15666
459.0 15678
504.0 15691
489.0 15704
467.0 15716
521.0 15728
470.0 15740
492.0 15753
513.0 15766
470.0 15778
518.0 15791
498.0 15803
482.0 15815
522.0 15828
476.0 15841
498.0 15853
508.0 15865
465.0 15878
518.0 15891
495.0 15903
483.0 15916
521.0 15928
469.0 15940
510.0 15952
509.0 15966
473.0 15978
529.0 15990
494.0 16003
495.0 16015
527.0 16028
482.0 16040
525.0 16053
529.0 16065
498.0 16077
558.0 16091
511.0 16103
505.0 16115
525.0 16128
473.0 16140
511.0 16152
506.0 16165
480.0 16178
534.0 16190
490.0 16202
479.0 16215
716.0 16228
718.0 16240
557.0 16252
526.0 16265
489.0 16277
518.0 16290
490.0 16303
500.0 16315
515.0 16327
467.0 16339
508.0 16352
537.0 16365
492.0 16377
540.0 16390
527.0 16402
524.0 16414
560.0 16428
523.0 16440
580.0 16452
582.0 16464
565.0 16477
599.0 16490
536.0 16502
541.0 16515
544.0 16527
498.0 16539
539.0 16551
520.0 16565
498.0 16577
544.0 16589
504.0 16602
528.0 16614
530.0 16627
483.0 16640
501.0 16652
492.0 16664
463.0 16676
501.0 16690
443.0 16702
475.0 16714
475.0 16727
446.0 16739
502.0 16751
483.0 16764
478.0 16777
513.0 16789
455.0 16801
504.0 16814
487.0 16827
463.0 16839
517.0 16851
482.0 16864
501.0 16876
523.0 16889
490.0 16902
526.0 16914
504.0 16926
475.0 16939
522.0 16951
480.0 16964
492.0