746.0 2
732.0 4
595.0 6
398.0 9
223.0 11
104.0 13
60.0 16
62.0 18
92.0 20
142.0 23
181.0 25
204.0 34
209.0 44
272.0 54
258.0 63
311.0 72
298.0 81
346.0 91
320.0 100
373.0 110
351.0 121
399.0 132
360.0 142
405.0 152
348.0 162
384.0 173
355.0 184
392.0 194
355.0 204
395.0 215
367.0 225
395.0 235
378.0 245
412.0 257
395.0 267
403.0 277
413.0 287
408.0 297
430.0 308
415.0 319
447.0 329
417.0 339
462.0 350
418.0 360
457.0 370
427.0 381
473.0 392
425.0 402
486.0 412
444.0 422
485.0 433
445.0 443
495.0 454
454.0 464
497.0 475
459.0 485
492.0 495
467.0 505
509.0 517
481.0 527
506.0 537
506.0 547
513.0 558
515.0 568
510.0 578
530.0 589
502.0 600
532.0 610
505.0 620
539.0 630
496.0 641
548.0 652
496.0 662
544.0 672
499.0 683
545.0 693
471.0 703
562.0 714
692.0 724
763.0 735
553.0 745
560.0 755
545.0 765
559.0 776
525.0 787
553.0 797
528.0 807
548.0 818
535.0 828
538.0 838
552.0 849
541.0 860
564.0 870
548.0 880
570.0 890
543.0 901
585.0 911
558.0 922
597.0 932
552.0 943
613.0 953
551.0 963
588.0 973
540.0 985
565.0 995
524.0 1005
553.0 1016
521.0 1028
526.0 1039
550.0 1051
509.0 1062
563.0 1074
503.0 1085
549.0 1096
508.0 1107
528.0 1120
541.0 1131
501.0 1142
554.0 1154
499.0 1165
548.0 1176
515.0 1188
523.0 1200
541.0 1211
505.0 1222
547.0 1233
509.0 1246
551.0 1257
508.0 1268
523.0 1280
533.0 1291
501.0 1302
557.0 1314
506.0 1326
538.0 1337
507.0 1348
519.0 1359
527.0 1371
499.0 1383
551.0 1394
497.0 1405
557.0 1417
510.0 1428
529.0 1439
543.0 1452
510.0 1463
541.0 1474
493.0 1485
536.0 1497
485.0 1508
515.0 1520
517.0 1531
493.0 1543
526.0 1554
475.0 1565
665.0 1576
729.0 1589
570.0 1600
521.0 1611
522.0 1623
530.0 1634
497.0 1646
536.0 1657
489.0 1669
511.0 1680
511.0 1691
492.0 1702
540.0 1715
502.0 1726
549.0 1737
511.0 1748
531.0 1760
535.0 1771
528.0 1783
569.0 1795
525.0 1806
583.0 1817
513.0 1828
527.0 1840
526.0 1852
491.0 1863
522.0 1874
473.0 1886
522.0 1897
470.0 1908
510.0 1921
492.0 1932
481.0 1943
514.0 1954
475.0 1966
501.0 1978
469.0 1989
505.0 2000
492.0 2012
475.0 2023
502.0 2034
470.0 2046
502.0 2058
469.0 2069
494.0 2080
483.0 2092
471.0 2103
517.0 2115
474.0 2126
516.0 2138
480.0 2149
500.0 2160
488.0 2171
492.0 2184
524.0 2195
481.0 2206
520.0 2217
478.0 2229
508.0 2240
504.0 2252
496.0 2264
531.0 2275
496.0 2286
541.0 2297
488.0 2309
518.0 2321
500.0 2332
498.0 2343
524.0 2355
477.0 2366
520.0 2378
477.0 2390
510.0 2401
492.0 2412
480.0 2423
495.0 2435
641.0 2447
732.0 2458
530.0 2469
517.0 2481
506.0 2492
484.0 2503
525.0 2515
482.0 2527
520.0 2538
477.0 2549
513.0 2561
494.0 2572
500.0 2584
533.0 2595
495.0 2607
539.0 2618
512.0 2629
542.0 2640
534.0 2653
525.0 2664
567.0 2675
519.0 2686
553.0 2698
493.0 2710
515.0 2721
490.0 2733
489.0 2744
511.0 2755
468.0 2766
520.0 2779
478.0 2790
506.0 2801
486.0 2812
485.0 2824
508.0 2835
479.0 2847
517.0 2859
471.0 2870
496.0 2881
469.0 2892
473.0 2904
503.0 2916
467.0 2927
504.0 2938
470.0 2950
498.0 2961
472.0 2972
476.0 2984
498.0 2996
467.0 3007
498.0 3018
462.0 3030
495.0 3041
479.0 3053
484.0 3064
499.0 3076
466.0 3087
507.0 3098
475.0 3110
502.0 3122
477.0 3133
480.0 3144
495.0 3155
463.0 3167
504.0 3179
467.0 3190
493.0 3202
479.0 3213
474.0 3224
458.0 3235
495.0 3248
743.0 3259
618.0 3270
505.0 3281
497.0 3293
490.0 3304
508.0 3316
467.0 3328
516.0 3339
469.0 3350
503.0 3361
483.0 3373
491.0 3385
507.0 3396
485.0 3407
530.0 3419
490.0 3430
527.0 3442
511.0 3453
527.0 3465
545.0 3476
519.0 3487
544.0 3499
490.0 3511
511.0 3522
466.0 3533
489.0 3545
487.0 3556
460.0 3567
507.0 3579
460.0 3591
499.0 3602
477.0 3613
487.0 3624
488.0 3636
474.0 3648
510.0 3659
464.0 3671
505.0 3682
475.0 3693
491.0 3704
501.0 3717
471.0 3728
513.0 3739
479.0 3750
512.0 3762
478.0 3773
502.0 3785
499.0 3796
476.0 3808
519.0 3819
477.0 3830
519.0 3843
487.0 3854
502.0 3865
512.0 3876
482.0 3888
519.0 3899
495.0 3911
530.0 3922
496.0 3934
531.0 3945
521.0 3956
497.0 3968
545.0 3980
494.0 3991
529.0 4002
494.0 4014
513.0 4025
510.0 4036
502.0 4048
524.0 4060
486.0 4071
489.0 4082
523.0 4093
764.0 4105
649.0 4117
492.0 4128
556.0 4140
503.0 4151
521.0 4162
490.0 4174
523.0 4186
515.0 4197
504.0 4208
531.0 4219
496.0 4231
547.0 4243
510.0 4254
534.0 4265
539.0 4277
518.0 4288
564.0 4299
538.0 4312
580.0 4323
538.0 4334
571.0 4345
537.0 4357
506.0 4368
539.0 4380
488.0 4391
522.0 4403
482.0 4414
512.0 4425
500.0 4436
489.0 4449
515.0 4460
479.0 4471
525.0 4483
479.0 4494
513.0 4505
500.0 4517
487.0 4529
511.0 4540
479.0 4551
510.0 4562
483.0 4575
510.0 4586
491.0 4597
489.0 4609
506.0 4620
473.0 4631
517.0 4643
482.0 4655
504.0 4666
504.0 4677
487.0 4688
510.0 4700
482.0 4712
515.0 4723
479.0 4734
520.0 4746
503.0 4757
504.0 4768
534.0 4781
492.0 4792
533.0 4803
490.0 4814
509.0 4826
492.0 4837
484.0 4849
501.0 4860
469.0 4872
507.0 4883
467.0 4894
479.0 4907
479.0 4918
660.0 4929
710.0 4940
508.0 4952
529.0 4963
496.0 4975
518.0 4986
485.0 4998
495.0 5009
509.0 5020
479.0 5031
533.0 5044
490.0 5055
516.0 5066
500.0 5078
499.0 5089
517.0 5100
504.0 5112
541.0 5124
510.0 5135
552.0 5146
522.0 5157
529.0 5169
537.0 5181
481.0 5192
513.0 5203
467.0 5215
496.0 5226
472.0 5237
485.0 5250
498.0 5261
462.0 5272
505.0 5283
466.0 5295
506.0 5307
480.0 5318
486.0 5329
504.0 5341
471.0 5352
510.0 5363
480.0 5376
509.0 5387
476.0 5398
497.0 5409
498.0 5421
477.0 5432
518.0 5444
470.0 5455
505.0 5467
480.0 5478
485.0 5489
497.0 5500
477.0 5513
514.0 5524
475.0 5535
509.0 5547
478.0 5558
499.0 5569
511.0 5581
488.0 5593
527.0 5604
486.0 5615
513.0 5626
483.0 5639
500.0 5650
500.0 5661
475.0 5672
511.0 5684
468.0 5695
512.0 5707
479.0 5719
472.0 5730
487.0 5741
622.0 5752
732.0 5764
534.0 5776
533.0 5787
511.0 5798
509.0 5810
503.0 5821
484.0 5832
534.0 5844
494.0 5856
529.0 5867
500.0 5878
510.0 5890
517.0 5901
504.0 5913
541.0 5924
500.0 5936
549.0 5947
512.0 5958
537.0 5969
553.0 5982
528.0 5993
549.0 6004
496.0 6016
521.0 6027
476.0 6039
503.0 6050
490.0 6062
476.0 6073
501.0 6084
458.0 6095
506.0 6108
470.0 6119
483.0 6130
486.0 6141
473.0 6153
500.0 6164
474.0 6176
501.0 6188
471.0 6199
501.0 6210
485.0 6221
485.0 6233
508.0 6245
480.0 6256
508.0 6267
481.0 6279
486.0 6290
482.0 6301
485.0 6313
507.0 6325
477.0 6336
512.0 6347
484.0 6359
510.0 6371
503.0 6382
491.0 6393
515.0 6405
480.0 6416
508.0 6427
477.0 6439
502.0 6451
484.0 6462
481.0 6473
503.0 6484
463.0 6496
511.0 6508
436.0 6519
559.0 6531
747.0 6542
595.0 6553
502.0 6564
500.0 6577
511.0 6588
475.0 6599
504.0 6610
486.0 6622
486.0 6633
511.0 6645
478.0 6657
514.0 6668
481.0 6679
506.0 6690
501.0 6702
514.0 6714
538.0 6725
508.0 6736
556.0 6748
520.0 6759
554.0 6771
522.0 6782
506.0 6794
524.0 6805
480.0 6816
506.0 6828
475.0 6840
507.0 6851
477.0 6862
487.0 6874
496.0 6885
460.0 6896
508.0 6908
468.0 6920
501.0 6931
484.0 6942
482.0 6953
500.0 6965
475.0 6977
505.0 6988
468.0 7000
500.0 7011
475.0 7022
480.0 7033
503.0 7046
475.0 7057
506.0 7068
464.0 7079
495.0 7091
475.0 7103
482.0 7114
511.0 7126
478.0 7137
520.0 7148
485.0 7159
514.0 7172
486.0 7183
480.0 7194
501.0 7205
468.0 7217
502.0 7228
480.0 7240
502.0 7251
476.0 7263
484.0 7274
481.0 7285
437.0 7297
620.0 7309
714.0 7320
584.0 7331
489.0 7343
517.0 7354
506.0 7365
483.0 7377
514.0 7389
479.0 7400
514.0 7411
482.0 7422
503.0 7434
525.0 7446
494.0 7457
533.0 7469
495.0 7480
533.0 7491
509.0 7503
532.0 7515
540.0 7526
528.0 7537
567.0 7548
500.0 7560
540.0 7572
488.0 7583
493.0 7595
502.0 7606
476.0 7617
508.0 7628
466.0 7641
503.0 7652
471.0 7663
491.0 7674
493.0 7686
478.0 7697
518.0 7709
473.0 7720
510.0 7732
474.0 7743
487.0 7754
503.0 7766
476.0 7778
508.0 7789
471.0 7800
503.0 7812
471.0 7823
486.0 7835
494.0 7846
479.0 7858
507.0 7869
462.0 7880
494.0 7891
475.0 7904
494.0 7915
496.0 7926
482.0 7938
521.0 7949
473.0 7960
517.0 7972
475.0 7984
494.0 7995
497.0 8006
470.0 8017
506.0 8029
472.0 8041
509.0 8052
471.0 8064
496.0 8075
473.0 8086
441.0 8097
629.0 8110
694.0 8121
561.0 8132
476.0 8143
517.0 8155
492.0 8166
475.0 8178
507.0 8189
465.0 8201
509.0 8212
468.0 8223
500.0 8236
495.0 8247
485.0 8258
524.0 8269
485.0 8281
522.0 8292
507.0 8304
533.0 8315
536.0 8327
525.0 8338
555.0 8349
500.0 8360
534.0 8373
476.0 8384
493.0 8395
494.0 8407
476.0 8418
505.0 8429
469.0 8441
515.0 8453
470.0 8464
506.0 8475
483.0 8486
479.0 8498
517.0 8510
472.0 8521
510.0 8532
476.0 8544
500.0 8555
485.0 8567
478.0 8579
505.0 8590
471.0 8601
503.0 8612
468.0 8624
502.0 8636
492.0 8647
479.0 8658
510.0 8670
467.0 8681
506.0 8692
479.0 8705
507.0 8716
493.0 8727
492.0 8738
521.0 8750
485.0 8761
522.0 8773
483.0 8784
507.0 8796
490.0 8807
475.0 8818
498.0 8829
471.0 8842
512.0 8853
470.0 8864
502.0 8876
439.0 8887
533.0 8898
764.0 8910
582.0 8922
507.0 8933
502.0 8944
508.0 8955
491.0 8968
489.0 8979
509.0 8990
486.0 9001
527.0 9013
478.0 9024
526.0 9036
508.0 9048
511.0 9059
535.0 9070
502.0 9081
550.0 9093
521.0 9105
552.0 9116
530.0 9127
545.0 9139
551.0 9150
490.0 9161
534.0 9174
475.0 9185
508.0 9196
483.0 9207
489.0 9219
509.0 9230
480.0 9242
514.0 9253
476.0 9265
512.0 9276
484.0 9287
491.0 9299
510.0 9311
476.0 9322
521.0 9333
479.0 9345
509.0 9356
486.0 9368
487.0 9379
498.0 9391
475.0 9402
512.0 9413
483.0 9424
517.0 9437
481.0 9448
494.0 9459
509.0 9470
472.0 9482
509.0 9493
485.0 9505
522.0 9517
489.0 9528
512.0 9539
518.0 9550
479.0 9562
526.0 9574
475.0 9585
512.0 9596
481.0 9608
491.0 9619
510.0 9630
482.0 9643
520.0 9654
478.0 9665
480.0 9676
571.0 9688
749.0 9700
599.0 9711
478.0 9722
545.0 9734
492.0 9745
517.0 9756
489.0 9768
496.0 9780
511.0 9791
489.0 9802
527.0 9814
490.0 9825
534.0 9837
503.0 9848
514.0 9860
541.0 9871
499.0 9882
553.0 9893
521.0 9906
564.0 9917
525.0 9928
523.0 9939
522.0 9951
483.0 9962
520.0 9974
469.0 9986
508.0 9997
475.0 10008
482.0 10020
510.0 10034
472.0 10046
502.0 10058
487.0 10071
473.0 10083
500.0 10095
469.0 10108
486.0 10121
501.0 10133
475.0 10145
502.0 10158
486.0 10171
471.0 10183
507.0 10195
466.0 10208
491.0 10220
503.0 10233
471.0 10246
509.0 10258
484.0 10270
471.0 10283
511.0 10295
474.0 10308
506.0 10320
512.0 10333
472.0 10345
504.0 10357
480.0 10371
469.0 10383
499.0 10395
467.0 10407
494.0 10420
495.0 10433
468.0 10445
469.0 10458
560.0 10470
723.0 10482
575.0 10494
484.0 10508
526.0 10520
504.0 10532
472.0 10545
511.0 10557
487.0 10570
481.0 10583
523.0 10595
481.0 10607
515.0 10619
521.0 10633
501.0 10645
532.0 10657
515.0 10670
523.0 10682
563.0 10694
519.0 10707
538.0 10720
513.0 10732
482.0 10744
501.0 10757
477.0 10770
476.0 10782
500.0 10795
464.0 10807
495.0 10819
483.0 10832
475.0 10845
503.0 10857
465.0 10869
487.0 10882
505.0 10894
466.0 10907
504.0 10919
482.0 10932
475.0 10944
507.0 10956
471.0 10970
492.0 10982
502.0 10994
466.0 11006
504.0 11019
485.0 11032
479.0 11044
505.0 11057
470.0 11069
498.0 11081
503.0 11094
478.0 11107
521.0 11119
489.0 11131
495.0 11144
524.0 11156
490.0 11169
505.0 11182
504.0 11194
471.0 11206
510.0 11218
481.0 11232
487.0 11244
514.0 11256
471.0 11269
487.0 11281
482.0 11293
666.0 11307
681.0 11319
480.0 11331
522.0 11343
519.0 11356
478.0 11369
515.0 11381
499.0 11394
481.0 11406
518.0 11418
491.0 11431
505.0 11444
529.0 11456
496.0 11468
522.0 11481
521.0 11493
508.0 11506
554.0 11518
524.0 11531
541.0 11543
541.0 11555
495.0 11569
513.0 11581
490.0 11593
472.0 11606
505.0 11618
462.0 11631
494.0 11643
495.0 11656
458.0 11668
497.0 11680
471.0 11693
477.0 11706
508.0 11718
474.0 11730
493.0 11743
493.0 11755
474.0 11768
508.0 11781
470.0 11793
477.0 11805
502.0 11817
471.0 11831
503.0 11843
493.0 11855
468.0 11868
513.0 11880
467.0 11892
482.0 11906
511.0 11918
472.0 11930
503.0 11942
494.0 11955
478.0 11968
513.0 11980
483.0 11993
495.0 12005
512.0 12017
478.0 12030
508.0 12043
481.0 12055
468.0 12067
505.0 12080
463.0 12092
479.0 12105
500.0 12118
453.0 12130
489.0 12142
657.0 12154
634.0 12168
513.0 12180
482.0 12192
489.0 12205
490.0 12217
474.0 12230
502.0 12242
476.0 12255
472.0 12267
508.0 12279
476.0 12292
503.0 12305
514.0 12317
494.0 12329
541.0 12342
511.0 12354
525.0 12367
555.0 12380
519.0 12392
532.0 12404
515.0 12417
476.0 12430
505.0 12442
474.0 12454
472.0 12467
499.0 12479
461.0 12491
498.0 12505
490.0 12517
473.0 12529
511.0 12541
474.0 12554
489.0 12567
509.0 12579
468.0 12592
512.0 12604
492.0 12616
481.0 12630
509.0 12642
477.0 12654
496.0 12666
512.0 12679
476.0 12691
510.0 12704
503.0 12717
487.0 12729
522.0 12741
481.0 12753
504.0 12767
517.0 12779
485.0 12791
526.0 12804
508.0 12816
490.0 12829
524.0 12841
484.0 12854
499.0 12866
512.0 12878
470.0 12891
511.0 12904
490.0 12916
474.0 12929
514.0 12941
446.0 12953
632.0 12966
726.0 12979
505.0 12991
531.0 13003
503.0 13016
487.0 13029
525.0 13041
479.0 13053
507.0 13066
507.0 13078
478.0 13090
523.0 13104
499.0 13116
498.0 13128
542.0 13140
503.0 13153
540.0 13166
541.0 13178
513.0 13191
554.0 13203
512.0 13215
503.0 13229
522.0 13241
472.0 13253
498.0 13265
487.0 13278
460.0 13290
498.0 13303
465.0 13316
480.0 13328
504.0 13340
466.0 13352
499.0 13366
482.0 13378
472.0 13390
501.0 13403
464.0 13415
488.0 13428
507.0 13441
464.0 13453
509.0 13465
473.0 13477
468.0 13490
506.0 13503
469.0 13515
491.0 13528
512.0 13540
473.0 13552
520.0 13565
482.0 13578
477.0 13590
513.0 13602
471.0 13615
500.0 13628
509.0 13640
482.0 13652
531.0 13665
488.0 13677
484.0 13689
515.0 13703
469.0 13715
495.0 13727
505.0 13740
463.0 13752
512.0 13765
481.0 13777
452.0 13790
519.0 13802
697.0 13814
653.0 13828
503.0 13840
499.0 13852
524.0 13864
477.0 13877
491.0 13889
520.0 13902
481.0 13915
510.0 13927
514.0 13939
491.0 13952
539.0 13965
501.0 13977
508.0 13989
547.0 14002
512.0 14014
553.0 14027
547.0 14040
516.0 14052
546.0 14064
493.0 14076
487.0 14089
509.0 14102
470.0 14114
496.0 14127
486.0 14139
464.0 14151
517.0 14164
466.0 14177
483.0 14189
502.0 14201
474.0 14214
509.0 14227
493.0 14239
475.0 14252
516.0 14264
471.0 14276
497.0 14288
504.0 14302
473.0 14314
509.0 14326
477.0 14339
473.0 14351
518.0 14364
467.0 14376
498.0 14389
501.0 14401
477.0 14413
514.0 14427
485.0 14439
492.0 14451
520.0 14464
479.0 14476
511.0 14488
514.0 14501
490.0 14514
520.0 14526
477.0 14538
485.0 14551
516.0 14564
461.0 14576
496.0 14588
489.0 14601
473.0 14613
512.0 14626
475.0 14639
454.0 14651
653.0 14663
685.0 14675
536.0 14688
526.0 14701
492.0 14713
528.0 14726
488.0 14738
497.0 14750
534.0 14764
483.0 14776
524.0 14788
508.0 14800
493.0 14813
538.0 14826
507.0 14838
524.0 14851
556.0 14863
515.0 14875
561.0 14887
545.0 14901
518.0 14913
540.0 14925
488.0 14938
497.0 14950
517.0 14963
464.0 14976
506.0 14988
482.0 15000
473.0 15012
518.0 15026
473.0 15038
502.0 15050
502.0 15063
467.0 15075
506.0 15087
477.0 15100
478.0 15113
509.0 15125
469.0 15137
503.0 15150
510.0 15163
477.0 15175
509.0 15187
476.0 15200
482.0 15212
510.0 15225
471.0 15238
511.0 15250
497.0 15262
475.0 15275
507.0 15287
483.0 15300
495.0 15312
524.0 15325
490.0 15337
522.0 15349
519.0 15363
480.0 15375
514.0 15387
476.0 15399
487.0 15412
516.0 15425
484.0 15437
506.0 15450
497.0 15462
458.0 15474
511.0 15486
691.0 15500
642.0 15512
517.0 15524
498.0 15537
515.0 15549
502.0 15562
485.0 15575
515.0 15587
491.0 15599
504.0 15611
529.0 15625
485.0 15637
528.0 15649
514.0 15662
505.0 15674
550.0 15686
519.0 15699
547.0 15712
557.0 15724
526.0 15736
545.0 15749
509.0 15762
487.0 15774
522.0 15787
473.0 15799
496.0 15811
504.0 15824
466.0 15837
507.0 15849
477.0 15861
476.0 15874
508.0 15886
464.0 15899
495.0 15911
499.0 15924
471.0 15936
504.0 15948
473.0 15962
475.0 15974
508.0 15986
468.0 15998
498.0 16011
490.0 16024
474.0 16036
510.0 16049
473.0 16061
481.0 16073
505.0 16086
472.0 16099
510.0 16111
500.0 16123
483.0 16136
499.0 16148
482.0 16161
480.0 16174
496.0 16186
452.0 16198
496.0 16210
483.0 16224
466.0 16236
494.0 16248
440.0 16261
508.0 16273
752.0 16285
587.0 16299
502.0 16311
508.0 16323
463.0 16335
507.0 16348
486.0 16361
500.0 16373
503.0 16386
467.0 16398
510.0 16410
495.0 16423
489.0 16436
526.0 16448
497.0 16460
528.0 16473
530.0 16485
511.0 16498
553.0 16510
520.0 16523
505.0 16535
516.0 16547
471.0 16561
491.0 16573
488.0 16585
459.0 16598
498.0 16610
473.0 16623
481.0 16635
499.0 16648
469.0 16660
499.0 16672
492.0 16685
472.0 16698
507.0 16710
478.0 16722
483.0 16735
502.0 16747
468.0 16760
494.0 16773
479.0 16785
467.0 16797
506.0 16809
467.0 16823
489.0 16835
496.0 16847
469.0 16860
499.0 16872
478.0 16884
467.0 16898
503.0 16910
474.0 16922
495.0 16934
504.0 16947
478.0 16960
505.0 16972
477.0 16985
467.0 16997
503.0 17009
462.0 17022
492.0 17035
493.0 17047
476.0 17059
502.0 17072
447.0 17084
521.0 17097
761.0 17110
563.0 17122
504.0 17134
521.0 17146
481.0 17160
506.0 17172
486.0 17184
483.0 17197
510.0 17209
480.0 17222
504.0 17234
507.0 17247
486.0 17259
521.0 17271
497.0 17284
507.0 17297
542.0 17309
515.0 17321
545.0 17334
531.0 17346
504.0 17359
517.0 17372
476.0 17384
475.0 17396
495.0 17409
465.0 17422
489.0 17434
484.0 17446
