504.0 2
480.0 4
414.0 6
328.0 9
244.0 11
179.0 13
140.0 16
120.0 18
121.0 20
142.0 23
175.0 28
250.0 37
249.0 48
339.0 57
300.0 66
385.0 75
351.0 84
417.0 94
387.0 103
452.0 114
413.0 124
500.0 135
436.0 145
522.0 155
469.0 165
553.0 176
503.0 187
567.0 197
516.0 207
573.0 218
505.0 228
551.0 238
512.0 249
544.0 260
513.0 270
550.0 280
522.0 290
535.0 301
535.0 311
539.0 322
541.0 332
533.0 343
555.0 353
522.0 363
554.0 373
526.0 385
569.0 395
514.0 405
575.0 415
514.0 425
577.0 436
504.0 447
558.0 457
487.0 467
541.0 478
477.0 488
524.0 498
468.0 508
511.0 520
461.0 530
505.0 540
471.0 550
474.0 561
441.0 571
592.0 582
757.0 592
621.0 603
500.0 613
512.0 623
511.0 633
473.0 644
500.0 655
460.0 665
508.0 675
453.0 686
504.0 696
451.0 706
521.0 717
455.0 728
529.0 738
471.0 748
537.0 758
473.0 769
535.0 780
491.0 790
531.0 800
495.0 811
525.0 821
473.0 831
493.0 841
470.0 852
472.0 863
467.0 873
468.0 883
473.0 893
457.0 904
481.0 915
454.0 925
495.0 935
446.0 946
498.0 956
443.0 966
503.0 976
435.0 988
507.0 998
438.0 1008
498.0 1019
446.0 1031
479.0 1042
471.0 1054
463.0 1065
511.0 1077
446.0 1088
525.0 1099
465.0 1111
498.0 1123
472.0 1134
465.0 1145
490.0 1157
429.0 1168
495.0 1180
432.0 1191
475.0 1203
456.0 1214
443.0 1225
443.0 1236
460.0 1249
744.0 1260
614.0 1271
508.0 1283
496.0 1294
478.0 1305
496.0 1317
447.0 1329
508.0 1340
455.0 1351
504.0 1362
474.0 1374
489.0 1386
514.0 1397
475.0 1409
537.0 1420
483.0 1431
536.0 1442
519.0 1455
524.0 1466
555.0 1477
500.0 1488
552.0 1500
478.0 1512
528.0 1523
485.0 1534
493.0 1546
516.0 1557
466.0 1568
530.0 1581
469.0 1592
523.0 1603
489.0 1614
507.0 1626
509.0 1637
479.0 1649
531.0 1660
472.0 1672
532.0 1683
477.0 1694
511.0 1705
517.0 1718
480.0 1729
540.0 1740
485.0 1752
551.0 1763
510.0 1774
539.0 1786
527.0 1798
496.0 1809
554.0 1820
484.0 1831
543.0 1843
506.0 1855
523.0 1866
517.0 1878
490.0 1889
532.0 1900
440.0 1912
579.0 1924
751.0 1935
699.0 1946
541.0 1957
536.0 1969
564.0 1981
488.0 1992
552.0 2003
499.0 2015
532.0 2026
519.0 2037
508.0 2050
542.0 2061
487.0 2072
553.0 2083
496.0 2095
531.0 2106
535.0 2118
513.0 2129
552.0 2141
505.0 2152
550.0 2163
487.0 2174
512.0 2187
486.0 2198
473.0 2209
508.0 2221
450.0 2232
512.0 2244
454.0 2255
492.0 2267
470.0 2278
464.0 2289
501.0 2300
457.0 2313
516.0 2324
456.0 2335
510.0 2347
479.0 2358
473.0 2369
503.0 2381
451.0 2393
513.0 2404
460.0 2415
500.0 2426
480.0 2438
488.0 2450
510.0 2461
470.0 2472
531.0 2484
463.0 2495
504.0 2506
478.0 2519
485.0 2530
503.0 2541
462.0 2552
510.0 2564
460.0 2575
506.0 2587
473.0 2598
445.0 2610
566.0 2621
741.0 2632
691.0 2644
489.0 2656
568.0 2667
511.0 2678
508.0 2690
519.0 2701
488.0 2713
537.0 2724
484.0 2736
545.0 2747
496.0 2758
524.0 2769
538.0 2782
505.0 2793
560.0 2804
507.0 2816
568.0 2827
530.0 2838
556.0 2850
551.0 2862
503.0 2873
541.0 2884
468.0 2895
517.0 2907
472.0 2919
491.0 2930
494.0 2941
470.0 2953
509.0 2964
458.0 2976
517.0 2988
466.0 2999
491.0 3010
490.0 3021
469.0 3033
514.0 3045
452.0 3056
509.0 3067
459.0 3079
487.0 3090
482.0 3101
479.0 3113
515.0 3125
474.0 3136
535.0 3147
471.0 3159
502.0 3170
492.0 3182
476.0 3193
516.0 3205
467.0 3216
524.0 3227
467.0 3238
506.0 3251
487.0 3262
461.0 3273
499.0 3284
635.0 3296
775.0 3307
553.0 3319
537.0 3331
539.0 3342
508.0 3353
537.0 3364
488.0 3377
552.0 3388
485.0 3399
531.0 3410
508.0 3422
505.0 3433
547.0 3445
497.0 3457
556.0 3468
507.0 3479
549.0 3490
527.0 3502
537.0 3514
563.0 3525
499.0 3536
549.0 3548
482.0 3559
517.0 3570
487.0 3582
489.0 3594
505.0 3605
465.0 3616
516.0 3628
459.0 3639
512.0 3651
478.0 3662
484.0 3674
499.0 3685
457.0 3696
512.0 3708
455.0 3720
500.0 3731
470.0 3742
477.0 3753
498.0 3765
470.0 3777
525.0 3788
462.0 3800
523.0 3811
487.0 3822
496.0 3833
507.0 3846
465.0 3857
514.0 3868
444.0 3879
503.0 3891
461.0 3902
491.0 3914
492.0 3926
459.0 3937
474.0 3948
520.0 3959
794.0 3971
618.0 3983
513.0 3994
556.0 4005
499.0 4017
535.0 4028
483.0 4039
542.0 4051
485.0 4063
519.0 4074
512.0 4085
489.0 4097
545.0 4109
493.0 4120
553.0 4131
518.0 4143
548.0 4154
548.0 4165
536.0 4177
578.0 4189
511.0 4200
558.0 4211
494.0 4222
519.0 4234
505.0 4246
489.0 4257
526.0 4269
464.0 4280
520.0 4291
468.0 4302
510.0 4315
490.0 4326
478.0 4337
514.0 4348
450.0 4360
517.0 4371
459.0 4383
499.0 4395
484.0 4406
476.0 4417
510.0 4428
454.0 4441
528.0 4452
465.0 4463
516.0 4474
503.0 4486
496.0 4497
520.0 4509
469.0 4520
524.0 4532
463.0 4543
506.0 4554
479.0 4566
480.0 4578
501.0 4589
456.0 4600
515.0 4612
443.0 4623
486.0 4634
634.0 4646
729.0 4658
588.0 4669
497.0 4680
560.0 4691
481.0 4703
521.0 4715
491.0 4726
494.0 4738
514.0 4749
465.0 4760
534.0 4771
474.0 4784
525.0 4795
501.0 4806
513.0 4817
540.0 4829
505.0 4841
571.0 4852
509.0 4864
558.0 4875
511.0 4886
509.0 4897
514.0 4910
469.0 4921
521.0 4932
465.0 4943
513.0 4955
473.0 4966
497.0 4978
500.0 4989
468.0 5001
524.0 5012
460.0 5023
514.0 5035
473.0 5047
507.0 5058
503.0 5069
472.0 5081
521.0 5092
465.0 5103
525.0 5115
491.0 5127
510.0 5138
522.0 5149
486.0 5160
555.0 5173
495.0 5184
545.0 5195
496.0 5207
513.0 5218
503.0 5229
490.0 5241
539.0 5253
470.0 5264
532.0 5275
483.0 5286
512.0 5298
496.0 5310
464.0 5321
711.0 5332
709.0 5344
608.0 5355
510.0 5366
558.0 5379
526.0 5390
497.0 5401
544.0 5412
479.0 5424
539.0 5435
493.0 5447
527.0 5458
517.0 5470
500.0 5481
552.0 5492
499.0 5504
574.0 5516
520.0 5527
562.0 5538
552.0 5550
526.0 5561
568.0 5573
489.0 5584
541.0 5596
478.0 5607
507.0 5618
491.0 5629
476.0 5642
519.0 5653
454.0 5664
524.0 5676
457.0 5687
499.0 5698
483.0 5710
481.0 5722
503.0 5733
457.0 5744
522.0 5755
462.0 5767
506.0 5779
489.0 5790
487.0 5801
526.0 5813
476.0 5824
554.0 5835
494.0 5848
530.0 5859
500.0 5870
492.0 5881
515.0 5893
462.0 5905
528.0 5916
460.0 5927
511.0 5939
483.0 5950
484.0 5961
472.0 5974
536.0 5985
813.0 5996
620.0 6007
532.0 6019
521.0 6030
470.0 6042
542.0 6053
482.0 6065
540.0 6076
469.0 6087
529.0 6098
500.0 6111
514.0 6122
531.0 6133
494.0 6145
556.0 6156
504.0 6167
562.0 6179
524.0 6191
544.0 6202
556.0 6213
510.0 6224
552.0 6236
480.0 6248
526.0 6259
478.0 6270
492.0 6282
503.0 6293
479.0 6305
526.0 6317
460.0 6328
526.0 6339
477.0 6350
488.0 6362
502.0 6374
476.0 6385
521.0 6396
456.0 6408
518.0 6419
465.0 6430
500.0 6443
502.0 6454
479.0 6465
537.0 6476
472.0 6488
521.0 6499
470.0 6511
498.0 6522
491.0 6534
471.0 6545
514.0 6556
451.0 6567
514.0 6580
459.0 6591
485.0 6602
443.0 6614
500.0 6625
775.0 6637
628.0 6648
527.0 6660
505.0 6671
511.0 6682
488.0 6693
475.0 6706
515.0 6717
452.0 6728
527.0 6739
466.0 6751
508.0 6762
504.0 6774
498.0 6786
538.0 6797
486.0 6808
557.0 6819
504.0 6831
552.0 6843
532.0 6854
515.0 6865
539.0 6877
467.0 6888
518.0 6899
458.0 6912
500.0 6923
473.0 6934
473.0 6945
505.0 6957
451.0 6968
512.0 6980
450.0 6991
495.0 7003
472.0 7014
477.0 7025
496.0 7037
456.0 7049
515.0 7060
457.0 7071
501.0 7083
466.0 7094
484.0 7106
513.0 7117
464.0 7129
539.0 7140
481.0 7151
520.0 7162
491.0 7175
488.0 7186
510.0 7197
467.0 7208
524.0 7220
464.0 7231
515.0 7243
481.0 7255
493.0 7266
482.0 7277
443.0 7288
692.0 7300
699.0 7312
592.0 7323
519.0 7334
537.0 7346
531.0 7357
489.0 7369
538.0 7380
485.0 7392
540.0 7403
503.0 7414
521.0 7426
537.0 7438
505.0 7449
558.0 7460
510.0 7472
568.0 7483
522.0 7494
558.0 7506
565.0 7518
524.0 7529
568.0 7540
489.0 7552
540.0 7563
494.0 7575
509.0 7586
511.0 7598
484.0 7609
528.0 7620
464.0 7631
530.0 7644
482.0 7655
507.0 7666
504.0 7677
478.0 7689
522.0 7700
471.0 7712
531.0 7724
478.0 7735
507.0 7746
505.0 7757
478.0 7770
530.0 7781
475.0 7792
536.0 7803
496.0 7815
526.0 7826
512.0 7838
495.0 7849
524.0 7861
477.0 7872
533.0 7883
472.0 7895
515.0 7907
494.0 7918
481.0 7929
520.0 7941
446.0 7952
521.0 7963
684.0 7975
735.0 7987
541.0 7998
522.0 8009
554.0 8020
480.0 8032
542.0 8044
482.0 8055
531.0 8067
500.0 8078
492.0 8089
524.0 8101
476.0 8113
539.0 8124
492.0 8135
543.0 8146
517.0 8158
531.0 8170
559.0 8181
503.0 8193
562.0 8204
488.0 8215
520.0 8226
488.0 8239
473.0 8250
491.0 8261
447.0 8272
501.0 8284
437.0 8295
491.0 8307
467.0 8318
470.0 8330
489.0 8341
449.0 8352
499.0 8364
448.0 8376
494.0 8387
457.0 8398
469.0 8410
493.0 8421
453.0 8432
522.0 8444
459.0 8456
510.0 8467
469.0 8478
474.0 8489
484.0 8502
449.0 8513
500.0 8524
445.0 8536
491.0 8547
461.0 8558
471.0 8570
459.0 8582
437.0 8593
694.0 8604
686.0 8615
577.0 8627
492.0 8639
526.0 8650
499.0 8662
476.0 8673
525.0 8684
467.0 8695
530.0 8708
484.0 8719
510.0 8730
515.0 8741
490.0 8753
553.0 8764
498.0 8776
557.0 8787
513.0 8799
548.0 8810
543.0 8821
516.0 8834
554.0 8845
479.0 8856
525.0 8867
465.0 8879
484.0 8890
483.0 8902
467.0 8913
507.0 8925
456.0 8936
518.0 8947
464.0 8958
499.0 8971
486.0 8982
478.0 8993
515.0 9005
456.0 9016
522.0 9027
479.0 9039
512.0 9051
508.0 9062
498.0 9073
523.0 9084
459.0 9096
523.0 9108
461.0 9119
496.0 9131
478.0 9142
475.0 9153
506.0 9164
464.0 9177
523.0 9188
427.0 9199
524.0 9210
716.0 9222
704.0 9234
558.0 9245
515.0 9256
560.0 9268
493.0 9279
521.0 9290
509.0 9303
501.0 9314
527.0 9325
481.0 9336
537.0 9348
484.0 9359
531.0 9371
515.0 9382
523.0 9394
560.0 9405
511.0 9416
578.0 9427
522.0 9440
566.0 9451
509.0 9462
511.0 9474
517.0 9485
462.0 9496
526.0 9508
449.0 9520
508.0 9531
476.0 9542
480.0 9553
498.0 9566
456.0 9577
516.0 9588
450.0 9600
500.0 9611
463.0 9622
479.0 9634
489.0 9646
460.0 9657
512.0 9668
452.0 9679
517.0 9691
476.0 9703
505.0 9714
514.0 9725
485.0 9737
527.0 9748
468.0 9759
521.0 9772
477.0 9783
495.0 9794
498.0 9805
475.0 9817
526.0 9828
470.0 9840
525.0 9851
461.0 9863
613.0 9874
786.0 9885
618.0 9896
577.0 9909
536.0 9920
573.0 9931
521.0 9943
549.0 9954
549.0 9966
527.0 9977
576.0 9989
515.0 10000
576.0 10012
546.0 10024
542.0 10038
602.0 10050
550.0 10062
575.0 10075
598.0 10087
547.0 10100
593.0 10113
545.0 10125
519.0 10137
558.0 10149
497.0 10162
532.0 10175
528.0 10187
482.0 10200
535.0 10212
489.0 10224
497.0 10237
526.0 10250
467.0 10262
505.0 10274
502.0 10287
465.0 10300
526.0 10312
479.0 10324
492.0 10337
530.0 10349
473.0 10361
530.0 10375
513.0 10387
489.0 10399
541.0 10412
478.0 10424
504.0 10437
515.0 10449
465.0 10462
510.0 10474
485.0 10486
467.0 10500
517.0 10512
428.0 10524
559.0 10536
779.0 10549
570.0 10561
535.0 10574
515.0 10587
483.0 10599
528.0 10611
475.0 10624
506.0 10637
517.0 10649
472.0 10661
533.0 10674
495.0 10686
500.0 10699
553.0 10712
497.0 10724
543.0 10736
544.0 10748
517.0 10761
567.0 10774
508.0 10786
501.0 10799
524.0 10811
457.0 10823
503.0 10836
487.0 10849
454.0 10861
515.0 10873
459.0 10886
480.0 10899
500.0 10911
450.0 10924
500.0 10936
477.0 10948
454.0 10960
510.0 10974
458.0 10986
481.0 10998
508.0 11011
467.0 11023
517.0 11036
473.0 11048
455.0 11061
508.0 11073
447.0 11085
479.0 11099
495.0 11111
438.0 11123
498.0 11136
454.0 11148
425.0 11160
643.0 11173
705.0 11186
552.0 11198
519.0 11210
479.0 11223
520.0 11236
471.0 11248
475.0 11260
519.0 11273
455.0 11285
509.0 11298
495.0 11311
466.0 11323
540.0 11335
492.0 11347
506.0 11360
539.0 11373
490.0 11385
540.0 11398
515.0 11410
475.0 11422
523.0 11436
455.0 11448
480.0 11460
493.0 11472
445.0 11485
499.0 11498
474.0 11510
456.0 11523
510.0 11535
450.0 11547
487.0 11559
501.0 11573
451.0 11585
511.0 11597
469.0 11610
465.0 11622
527.0 11635
459.0 11648
516.0 11660
521.0 11672
471.0 11684
520.0 11698
482.0 11710
478.0 11722
521.0 11735
455.0 11747
502.0 11759
494.0 11772
459.0 11785
480.0 11797
528.0 11809
766.0 11822
652.0 11835
492.0 11847
558.0 11859
518.0 11872
489.0 11884
547.0 11897
494.0 11910
512.0 11922
543.0 11934
488.0 11947
549.0 11959
533.0 11972
508.0 11984
572.0 11997
519.0 12009
544.0 12021
575.0 12035
512.0 12047
549.0 12059
507.0 12071
490.0 12084
530.0 12097
471.0 12109
503.0 12122
511.0 12134
456.0 12146
511.0 12158
484.0 12172
474.0 12184
513.0 12196
460.0 12209
493.0 12221
495.0 12234
454.0 12247
512.0 12259
467.0 12271
470.0 12283
518.0 12297
455.0 12309
511.0 12321
503.0 12334
474.0 12346
542.0 12358
488.0 12371
490.0 12384
515.0 12396
456.0 12408
502.0 12421
486.0 12434
456.0 12446
514.0 12459
465.0 12471
471.0 12483
487.0 12496
620.0 12509
734.0 12521
531.0 12533
511.0 12546
547.0 12558
478.0 12571
505.0 12583
518.0 12596
472.0 12608
524.0 12620
504.0 12634
491.0 12646
549.0 12658
493.0 12670
538.0 12683
546.0 12696
500.0 12708
563.0 12721
529.0 12733
517.0 12745
543.0 12758
471.0 12771
501.0 12783
490.0 12795
454.0 12808
514.0 12820
458.0 12833
462.0 12846
495.0 12858
440.0 12870
486.0 12882
480.0 12896
439.0 12908
509.0 12920
455.0 12933
471.0 12945
502.0 12957
445.0 12971
505.0 12983
474.0 12995
459.0 13007
524.0 13020
472.0 13033
503.0 13045
531.0 13058
478.0 13070
527.0 13082
494.0 13095
483.0 13108
528.0 13120
472.0 13132
502.0 13145
513.0 13157
471.0 13170
533.0 13182
453.0 13195
543.0 13207
810.0 13219
616.0 13233
550.0 13245
566.0 13257
506.0 13270
562.0 13282
515.0 13295
520.0 13307
560.0 13320
504.0 13332
550.0 13344
542.0 13357
512.0 13370
576.0 13382
531.0 13394
543.0 13407
579.0 13419
527.0 13432
571.0 13445
538.0 13457
495.0 13469
536.0 13481
478.0 13495
498.0 13507
509.0 13519
457.0 13532
503.0 13544
473.0 13556
461.0 13570
511.0 13582
452.0 13594
484.0 13606
493.0 13619
447.0 13632
498.0 13644
468.0 13657
455.0 13669
499.0 13681
450.0 13694
491.0 13707
499.0 13719
459.0 13731
517.0 13744
475.0 13756
465.0 13769
496.0 13782
443.0 13794
486.0 13806
481.0 13818
450.0 13832
501.0 13844
457.0 13856
430.0 13869
560.0 13881
729.0 13894
641.0 13906
488.0 13919
504.0 13931
522.0 13943
471.0 13956
496.0 13969
505.0 13981
460.0 13993
513.0 14006
495.0 14018
487.0 14031
542.0 14044
489.0 14056
528.0 14068
550.0 14081
507.0 14094
563.0 14106
525.0 14118
507.0 14131
538.0 14143
466.0 14155
492.0 14169
496.0 14181
454.0 14193
504.0 14205
466.0 14218
471.0 14231
503.0 14243
448.0 14256
488.0 14268
480.0 14280
454.0 14294
512.0 14306
464.0 14318
472.0 14330
504.0 14343
461.0 14355
504.0 14368
499.0 14381
474.0 14393
529.0 14405
460.0 14417
486.0 14431
510.0 14443
456.0 14455
511.0 14468
485.0 14480
467.0 14493
524.0 14505
439.0 14518
500.0 14530
756.0 14542
660.0 14555
551.0 14568
549.0 14580
515.0 14593
554.0 14605
497.0 14617
532.0 14630
542.0 14643
495.0 14655
558.0 14667
523.0 14680
528.0 14693
580.0 14705
519.0 14717
567.0 14730
572.0 14742
536.0 14754
587.0 14768
525.0 14780
525.0 14792
547.0 14804
473.0 14817
521.0 14830
503.0 14842
467.0 14855
524.0 14867
477.0 14879
482.0 14893
516.0 14905
455.0 14917
511.0 14929
484.0 14942
468.0 14954
521.0 14967
467.0 14980
491.0 14992
514.0 15004
456.0 15016
529.0 15030
500.0 15042
500.0 15054
549.0 15067
486.0 15079
516.0 15092
524.0 15105
465.0 15117
532.0 15129
491.0 15141
487.0 15154
540.0 15167
474.0 15179
511.0 15192
488.0 15204
598.0 15216
797.0 15229
567.0 15242
554.0 15254
581.0 15266
504.0 15279
551.0 15292
550.0 15304
511.0 15316
572.0 15329
525.0 15341
536.0 15353
576.0 15367
516.0 15379
568.0 15391
559.0 15404
531.0 15416
591.0 15429
536.0 15441
538.0 15454
546.0 15466
473.0 15478
519.0 15492
487.0 15504
470.0 15516
519.0 15528
464.0 15541
491.0 15553
502.0 15566
451.0 15579
502.0 15591
472.0 15603
453.0 15616
508.0 15629
442.0 15641
476.0 15653
489.0 15666
434.0 15678
497.0 15691
455.0 15704
457.0 15716
510.0 15728
452.0 15740
503.0 15753
490.0 15766
454.0 15778
499.0 15791
454.0 15803
463.0 15815
508.0 15828
439.0 15841
495.0 15853
486.0 15865
442.0 15878
493.0 15891
631.0 15903
725.0 15916
575.0 15928
502.0 15940
558.0 15952
519.0 15966
501.0 15978
552.0 15990
508.0 16003
511.0 16015
567.0 16028
499.0 16040
560.0 16053
537.0 16065
518.0 16077
579.0 16091
536.0 16103
574.0 16115
580.0 16128
528.0 16140
568.0 16152
526.0 16165
505.0 16178
541.0 16190
483.0 16202
519.0 16215
530.0 16228
487.0 16240
541.0 16252
498.0 16265
502.0 16277
548.0 16290
485.0 16303
533.0 16315
525.0 16327
479.0 16339
541.0 16352
496.0 16365
506.0 16377
541.0 16390
481.0 16402
540.0 16414
524.0 16428
481.0 16440
536.0 16452
466.0 16464
497.0 16477
512.0 16490
456.0 16502
510.0 16515
485.0 16527
475.0 16539
464.0 16551
552.0 16565
766.0 16577
628.0 16589
482.0 16602
564.0 16614
503.0 16627
503.0 16640
