683.0 2
640.0 4
559.0 6
468.0 9
401.0 11
372.0 13
366.0 16
364.0 18
364.0 20
368.0 23
384.0 28
472.0 37
403.0 48
498.0 57
640.0 66
776.0 75
643.0 84
516.0 94
557.0 103
524.0 114
519.0 124
513.0 135
496.0 145
450.0 155
370.0 165
408.0 176
255.0 187
403.0 197
331.0 207
403.0 218
322.0 228
401.0 238
330.0 249
398.0 260
335.0 270
403.0 280
352.0 290
391.0 301
334.0 311
367.0 322
331.0 332
345.0 343
333.0 353
344.0 363
353.0 373
340.0 385
384.0 395
339.0 405
399.0 415
343.0 425
413.0 436
345.0 447
431.0 457
350.0 467
435.0 478
368.0 488
445.0 498
387.0 508
455.0 520
404.0 530
458.0 540
430.0 550
453.0 561
451.0 571
464.0 582
478.0 592
462.0 603
506.0 613
462.0 623
513.0 633
457.0 644
524.0 655
453.0 665
527.0 675
456.0 686
531.0 696
463.0 706
536.0 717
472.0 728
518.0 738
458.0 748
656.0 758
788.0 769
687.0 780
545.0 790
572.0 800
561.0 811
533.0 821
562.0 831
519.0 841
576.0 852
518.0 863
590.0 873
513.0 883
594.0 893
525.0 904
608.0 915
537.0 925
618.0 935
549.0 946
622.0 956
563.0 966
620.0 976
575.0 988
608.0 998
565.0 1008
563.0 1019
585.0 1031
516.0 1042
584.0 1054
514.0 1065
559.0 1077
534.0 1088
525.0 1099
566.0 1111
506.0 1123
578.0 1134
511.0 1145
557.0 1157
537.0 1168
514.0 1180
570.0 1191
496.0 1203
574.0 1214
514.0 1225
555.0 1236
569.0 1249
523.0 1260
582.0 1271
502.0 1283
563.0 1294
508.0 1305
532.0 1317
540.0 1329
494.0 1340
565.0 1351
490.0 1362
547.0 1374
472.0 1386
596.0 1397
849.0 1409
654.0 1420
590.0 1431
542.0 1442
575.0 1455
528.0 1466
515.0 1477
561.0 1488
491.0 1500
569.0 1512
508.0 1523
554.0 1534
536.0 1546
527.0 1557
573.0 1568
508.0 1581
587.0 1592
531.0 1603
569.0 1614
563.0 1626
516.0 1637
571.0 1649
477.0 1660
539.0 1672
481.0 1683
498.0 1694
504.0 1705
467.0 1718
527.0 1729
455.0 1740
519.0 1752
474.0 1763
486.0 1774
506.0 1786
452.0 1798
522.0 1809
446.0 1820
501.0 1831
468.0 1843
471.0 1855
506.0 1866
447.0 1878
522.0 1889
454.0 1900
510.0 1912
495.0 1924
472.0 1935
516.0 1946
439.0 1957
509.0 1969
438.0 1981
477.0 1992
479.0 2003
445.0 2015
505.0 2026
435.0 2037
477.0 2050
452.0 2061
703.0 2072
715.0 2083
479.0 2095
544.0 2106
466.0 2118
505.0 2129
461.0 2141
471.0 2152
492.0 2163
441.0 2174
518.0 2187
443.0 2198
503.0 2209
473.0 2221
485.0 2232
524.0 2244
465.0 2255
543.0 2267
478.0 2278
527.0 2289
498.0 2300
481.0 2313
510.0 2324
429.0 2335
499.0 2347
430.0 2358
465.0 2369
463.0 2381
425.0 2393
493.0 2404
414.0 2415
484.0 2426
431.0 2438
458.0 2450
462.0 2461
420.0 2472
488.0 2484
412.0 2495
483.0 2506
439.0 2519
455.0 2530
482.0 2541
426.0 2552
505.0 2564
434.0 2575
499.0 2587
473.0 2598
476.0 2610
503.0 2621
444.0 2632
517.0 2644
444.0 2656
498.0 2667
463.0 2678
459.0 2690
504.0 2701
451.0 2713
521.0 2724
417.0 2736
560.0 2747
772.0 2758
641.0 2769
555.0 2782
506.0 2793
555.0 2804
493.0 2816
522.0 2827
520.0 2838
491.0 2850
553.0 2862
483.0 2873
549.0 2884
507.0 2895
539.0 2907
555.0 2919
516.0 2930
588.0 2941
522.0 2953
585.0 2964
557.0 2976
555.0 2988
572.0 2999
500.0 3010
563.0 3021
484.0 3033
542.0 3045
510.0 3056
501.0 3067
546.0 3079
470.0 3090
552.0 3101
489.0 3113
529.0 3125
511.0 3136
497.0 3147
546.0 3159
472.0 3170
548.0 3182
489.0 3193
522.0 3205
522.0 3216
489.0 3227
549.0 3238
479.0 3251
547.0 3262
504.0 3273
527.0 3284
544.0 3296
509.0 3307
574.0 3319
495.0 3331
553.0 3342
511.0 3353
521.0 3364
546.0 3377
493.0 3388
565.0 3399
499.0 3410
555.0 3422
504.0 3433
509.0 3445
743.0 3457
759.0 3468
667.0 3479
536.0 3490
604.0 3502
562.0 3514
544.0 3525
588.0 3536
520.0 3548
591.0 3559
528.0 3570
579.0 3582
567.0 3594
546.0 3605
612.0 3616
530.0 3628
617.0 3639
564.0 3651
592.0 3662
600.0 3674
555.0 3685
611.0 3696
520.0 3708
575.0 3720
516.0 3731
531.0 3742
545.0 3753
489.0 3765
561.0 3777
481.0 3788
539.0 3800
508.0 3811
504.0 3822
536.0 3833
475.0 3846
542.0 3857
468.0 3868
518.0 3879
487.0 3891
485.0 3902
532.0 3914
461.0 3926
536.0 3937
476.0 3948
520.0 3959
511.0 3971
495.0 3983
542.0 3994
468.0 4005
530.0 4017
466.0 4028
495.0 4039
497.0 4051
457.0 4063
517.0 4074
443.0 4085
507.0 4097
432.0 4109
474.0 4120
700.0 4131
694.0 4143
591.0 4154
476.0 4165
548.0 4177
476.0 4189
481.0 4200
507.0 4211
458.0 4222
530.0 4234
464.0 4246
515.0 4257
485.0 4269
484.0 4280
529.0 4291
465.0 4302
547.0 4315
487.0 4326
537.0 4337
521.0 4348
493.0 4360
533.0 4371
457.0 4383
514.0 4395
448.0 4406
488.0 4417
476.0 4428
440.0 4441
515.0 4452
430.0 4463
501.0 4474
452.0 4486
475.0 4497
486.0 4509
439.0 4520
516.0 4532
436.0 4543
501.0 4554
456.0 4566
478.0 4578
498.0 4589
445.0 4600
523.0 4612
444.0 4623
509.0 4634
483.0 4646
490.0 4658
525.0 4669
461.0 4680
528.0 4691
455.0 4703
507.0 4715
479.0 4726
472.0 4738
515.0 4749
441.0 4760
521.0 4771
462.0 4784
462.0 4795
529.0 4806
735.0 4817
728.0 4829
484.0 4841
575.0 4852
496.0 4864
516.0 4875
512.0 4886
475.0 4897
542.0 4910
465.0 4921
534.0 4932
490.0 4943
514.0 4955
535.0 4966
495.0 4978
559.0 4989
492.0 5001
561.0 5012
519.0 5023
534.0 5035
566.0 5047
485.0 5058
542.0 5069
461.0 5081
505.0 5092
475.0 5103
469.0 5115
506.0 5127
441.0 5138
517.0 5149
449.0 5160
499.0 5173
487.0 5184
470.0 5195
524.0 5207
448.0 5218
518.0 5229
465.0 5241
496.0 5253
493.0 5264
463.0 5275
513.0 5286
447.0 5298
522.0 5310
471.0 5321
502.0 5332
518.0 5344
461.0 5355
524.0 5366
455.0 5379
506.0 5390
469.0 5401
485.0 5412
504.0 5424
456.0 5435
528.0 5447
460.0 5458
490.0 5470
475.0 5481
658.0 5492
784.0 5504
543.0 5516
575.0 5527
512.0 5538
537.0 5550
518.0 5561
492.0 5573
548.0 5584
478.0 5596
550.0 5607
491.0 5618
524.0 5629
527.0 5642
504.0 5653
564.0 5664
495.0 5676
561.0 5687
522.0 5698
547.0 5710
555.0 5722
493.0 5733
554.0 5744
468.0 5755
515.0 5767
474.0 5779
481.0 5790
504.0 5801
453.0 5813
521.0 5824
451.0 5835
512.0 5848
476.0 5859
470.0 5870
506.0 5881
444.0 5893
516.0 5905
453.0 5916
499.0 5927
482.0 5939
467.0 5950
509.0 5961
446.0 5974
523.0 5985
460.0 5996
505.0 6007
499.0 6019
473.0 6030
536.0 6042
458.0 6053
517.0 6065
466.0 6076
480.0 6087
495.0 6098
453.0 6111
519.0 6122
445.0 6133
514.0 6145
439.0 6156
479.0 6167
727.0 6179
685.0 6191
585.0 6202
491.0 6213
542.0 6224
491.0 6236
498.0 6248
525.0 6259
467.0 6270
542.0 6282
473.0 6293
529.0 6305
507.0 6317
502.0 6328
555.0 6339
494.0 6350
570.0 6362
521.0 6374
564.0 6385
557.0 6396
526.0 6408
573.0 6419
482.0 6430
550.0 6443
483.0 6454
507.0 6465
520.0 6476
465.0 6488
545.0 6499
476.0 6511
546.0 6522
497.0 6534
519.0 6545
537.0 6556
491.0 6567
568.0 6580
490.0 6591
552.0 6602
510.0 6614
524.0 6625
555.0 6637
501.0 6648
571.0 6660
511.0 6671
561.0 6682
510.0 6693
502.0 6706
537.0 6717
466.0 6728
538.0 6739
476.0 6751
510.0 6762
487.0 6774
472.0 6786
525.0 6797
409.0 6808
595.0 6819
753.0 6831
660.0 6843
514.0 6854
501.0 6865
554.0 6877
451.0 6888
520.0 6899
472.0 6912
496.0 6923
511.0 6934
469.0 6945
537.0 6957
467.0 6968
545.0 6980
507.0 6991
517.0 7003
550.0 7014
507.0 7025
584.0 7037
510.0 7049
550.0 7060
509.0 7071
498.0 7083
514.0 7094
464.0 7106
527.0 7117
456.0 7129
505.0 7140
483.0 7151
471.0 7162
521.0 7175
449.0 7186
528.0 7197
473.0 7208
504.0 7220
499.0 7231
478.0 7243
534.0 7255
452.0 7266
526.0 7277
475.0 7288
504.0 7300
518.0 7312
474.0 7323
542.0 7334
481.0 7346
548.0 7357
507.0 7369
526.0 7380
544.0 7392
491.0 7403
556.0 7414
479.0 7426
543.0 7438
504.0 7449
507.0 7460
542.0 7472
479.0 7483
544.0 7494
445.0 7506
629.0 7518
807.0 7529
632.0 7540
569.0 7552
525.0 7563
564.0 7575
495.0 7586
525.0 7598
515.0 7609
489.0 7620
548.0 7631
476.0 7644
554.0 7655
502.0 7666
536.0 7677
539.0 7689
507.0 7700
578.0 7712
514.0 7724
580.0 7735
535.0 7746
545.0 7757
544.0 7770
479.0 7781
532.0 7792
456.0 7803
511.0 7815
470.0 7826
485.0 7838
503.0 7849
445.0 7861
516.0 7872
441.0 7883
489.0 7895
475.0 7907
458.0 7918
503.0 7929
433.0 7941
507.0 7952
439.0 7963
477.0 7975
471.0 7987
439.0 7998
501.0 8009
422.0 8020
493.0 8032
448.0 8044
475.0 8055
475.0 8067
446.0 8078
507.0 8089
426.0 8101
496.0 8113
435.0 8124
458.0 8135
477.0 8146
424.0 8158
504.0 8170
425.0 8181
484.0 8193
452.0 8204
414.0 8215
533.0 8226
705.0 8239
688.0 8250
453.0 8261
536.0 8272
480.0 8284
467.0 8295
512.0 8307
441.0 8318
515.0 8330
452.0 8341
495.0 8352
480.0 8364
469.0 8376
524.0 8387
466.0 8398
535.0 8410
487.0 8421
531.0 8432
527.0 8444
500.0 8456
550.0 8467
470.0 8478
510.0 8489
457.0 8502
474.0 8513
482.0 8524
442.0 8536
510.0 8547
430.0 8558
502.0 8570
453.0 8582
466.0 8593
498.0 8604
445.0 8615
512.0 8627
445.0 8639
499.0 8650
468.0 8662
480.0 8673
511.0 8684
457.0 8695
532.0 8708
466.0 8719
514.0 8730
492.0 8741
482.0 8753
533.0 8764
478.0 8776
543.0 8787
499.0 8799
536.0 8810
516.0 8821
494.0 8834
549.0 8845
470.0 8856
539.0 8867
485.0 8879
506.0 8890
517.0 8902
481.0 8913
541.0 8925
439.0 8936
555.0 8947
744.0 8958
734.0 8971
584.0 8982
526.0 8993
594.0 9005
505.0 9016
558.0 9027
522.0 9039
528.0 9051
556.0 9062
502.0 9073
573.0 9084
508.0 9096
561.0 9108
551.0 9119
542.0 9131
592.0 9142
522.0 9153
601.0 9164
547.0 9177
577.0 9188
550.0 9199
517.0 9210
553.0 9222
485.0 9234
544.0 9245
492.0 9256
515.0 9268
513.0 9279
477.0 9290
542.0 9303
477.0 9314
536.0 9325
493.0 9336
507.0 9348
526.0 9359
479.0 9371
544.0 9382
475.0 9394
532.0 9405
492.0 9416
497.0 9427
536.0 9440
481.0 9451
547.0 9462
491.0 9474
524.0 9485
497.0 9496
486.0 9508
523.0 9520
460.0 9531
534.0 9542
463.0 9553
516.0 9566
503.0 9577
479.0 9588
497.0 9600
467.0 9611
771.0 9622
708.0 9634
571.0 9646
545.0 9657
516.0 9668
553.0 9679
474.0 9691
543.0 9703
492.0 9714
513.0 9725
525.0 9737
483.0 9748
551.0 9759
487.0 9772
545.0 9783
509.0 9794
520.0 9805
562.0 9817
503.0 9828
575.0 9840
497.0 9851
529.0 9863
480.0 9874
466.0 9885
499.0 9896
432.0 9909
504.0 9920
438.0 9931
488.0 9943
467.0 9954
445.0 9966
509.0 9977
432.0 9989
506.0 10000
464.0 10012
458.0 10024
518.0 10038
452.0 10050
499.0 10062
506.0 10075
458.0 10087
529.0 10100
503.0 10113
490.0 10125
544.0 10137
474.0 10149
509.0 10162
519.0 10175
458.0 10187
525.0 10200
494.0 10212
470.0 10224
539.0 10237
446.0 10250
615.0 10262
882.0 10274
646.0 10287
629.0 10300
627.0 10312
574.0 10324
644.0 10337
579.0 10349
607.0 10361
646.0 10375
577.0 10387
642.0 10399
623.0 10412
597.0 10424
668.0 10437
612.0 10449
634.0 10462
671.0 10474
605.0 10486
649.0 10500
622.0 10512
558.0 10524
616.0 10536
554.0 10549
552.0 10561
596.0 10574
519.0 10587
566.0 10599
561.0 10611
502.0 10624
567.0 10637
517.0 10649
503.0 10661
556.0 10674
482.0 10686
516.0 10699
528.0 10712
457.0 10724
515.0 10736
479.0 10748
467.0 10761
522.0 10774
463.0 10786
494.0 10799
506.0 10811
438.0 10823
493.0 10836
458.0 10849
429.0 10861
490.0 10873
427.0 10886
443.0 10899
476.0 10911
367.0 10924
507.0 10936
724.0 10948
561.0 10960
499.0 10974
461.0 10986
449.0 10998
483.0 11011
405.0 11023
453.0 11036
452.0 11048
402.0 11061
474.0 11073
421.0 11085
427.0 11099
488.0 11111
426.0 11123
474.0 11136
500.0 11148
455.0 11160
525.0 11173
473.0 11186
455.0 11198
505.0 11210
429.0 11223
476.0 11236
492.0 11248
437.0 11260
501.0 11273
473.0 11285
453.0 11298
521.0 11311
454.0 11323
492.0 11335
510.0 11347
458.0 11360
518.0 11373
491.0 11385
468.0 11398
529.0 11410
472.0 11422
507.0 11436
541.0 11448
468.0 11460
538.0 11472
517.0 11485
479.0 11498
543.0 11510
487.0 11523
498.0 11535
535.0 11547
477.0 11559
525.0 11573
515.0 11585
472.0 11597
511.0 11610
497.0 11622
758.0 11635
737.0 11648
500.0 11660
570.0 11672
542.0 11684
489.0 11698
555.0 11710
508.0 11722
497.0 11735
557.0 11747
492.0 11759
536.0 11772
557.0 11785
500.0 11797
576.0 11809
547.0 11822
536.0 11835
597.0 11847
533.0 11859
544.0 11872
557.0 11884
474.0 11897
530.0 11910
501.0 11922
472.0 11934
529.0 11947
474.0 11959
494.0 11972
515.0 11984
453.0 11997
510.0 12009
492.0 12021
464.0 12035
527.0 12047
469.0 12059
489.0 12071
523.0 12084
461.0 12097
510.0 12109
505.0 12122
468.0 12134
524.0 12146
491.0 12158
494.0 12172
542.0 12184
469.0 12196
514.0 12209
515.0 12221
470.0 12234
530.0 12247
494.0 12259
486.0 12271
542.0 12283
462.0 12297
494.0 12309
734.0 12321
708.0 12334
588.0 12346
549.0 12358
520.0 12371
565.0 12384
500.0 12396
521.0 12408
545.0 12421
487.0 12434
542.0 12446
518.0 12459
493.0 12471
562.0 12483
504.0 12496
534.0 12509
567.0 12521
507.0 12533
560.0 12546
531.0 12558
471.0 12571
527.0 12583
461.0 12596
467.0 12608
500.0 12620
439.0 12634
486.0 12646
486.0 12658
427.0 12670
503.0 12683
451.0 12696
454.0 12708
506.0 12721
438.0 12733
485.0 12745
487.0 12758
443.0 12771
509.0 12783
464.0 12795
459.0 12808
520.0 12820
465.0 12833
502.0 12846
518.0 12858
460.0 12870
517.0 12882
472.0 12896
459.0 12908
520.0 12920
454.0 12933
484.0 12945
509.0 12957
454.0 12971
513.0 12983
449.0 12995
540.0 13007
822.0 13020
611.0 13033
526.0 13045
572.0 13058
478.0 13070
527.0 13082
518.0 13095
484.0 13108
554.0 13120
505.0 13132
516.0 13145
560.0 13157
496.0 13170
558.0 13182
554.0 13195
517.0 13207
589.0 13219
546.0 13233
543.0 13245
571.0 13257
488.0 13270
525.0 13282
522.0 13295
470.0 13307
533.0 13320
502.0 13332
486.0 13344
545.0 13357
480.0 13370
516.0 13382
533.0 13394
470.0 13407
536.0 13419
504.0 13432
477.0 13445
538.0 13457
473.0 13469
500.0 13481
523.0 13495
455.0 13507
525.0 13519
490.0 13532
472.0 13544
531.0 13556
483.0 13570
501.0 13582
548.0 13594
474.0 13606
527.0 13619
506.0 13632
462.0 13644
530.0 13657
474.0 13669
484.0 13681
527.0 13694
459.0 13707
502.0 13719
471.0 13731
504.0 13744
814.0 13756
637.0 13769
506.0 13782
577.0 13794
478.0 13806
513.0 13818
518.0 13832
472.0 13844
530.0 13856
496.0 13869
488.0 13881
554.0 13894
484.0 13906
530.0 13919
546.0 13931
495.0 13943
562.0 13956
532.0 13969
514.0 13981
561.0 13993
487.0 14006
496.0 14018
524.0 14031
451.0 14044
512.0 14056
485.0 14068
459.0 14081
528.0 14094
464.0 14106
485.0 14118
518.0 14131
452.0 14143
512.0 14155
495.0 14169
462.0 14181
523.0 14193
475.0 14205
480.0 14218
529.0 14231
463.0 14243
512.0 14256
502.0 14268
471.0 14280
533.0 14294
491.0 14306
488.0 14318
540.0 14330
474.0 14343
524.0 14355
528.0 14368
464.0 14381
526.0 14393
479.0 14405
473.0 14417
532.0 14431
463.0 14443
504.0 14455
514.0 14468
428.0 14480
623.0 14493
779.0 14505
577.0 14518
565.0 14530
513.0 14542
517.0 14555
542.0 14568
480.0 14580
542.0 14593
509.0 14605
491.0 14617
558.0 14630
501.0 14643
519.0 14655
565.0 14667
507.0 14680
566.0 14693
567.0 14705
524.0 14717
587.0 14730
520.0 14742
513.0 14754
538.0 14768
465.0 14780
507.0 14792
505.0 14804
452.0 14817
524.0 14830
472.0 14842
469.0 14855
523.0 14867
452.0 14879
500.0 14893
505.0 14905
462.0 14917
516.0 14929
480.0 14942
475.0 14954
524.0 14967
461.0 14980
495.0 14992
517.0 15004
442.0 15016
530.0 15030
490.0 15042
490.0 15054
536.0 15067
475.0 15079
497.0 15092
511.0 15105
458.0 15117
513.0 15129
494.0 15141
464.0 15154
533.0 15167
469.0 15179
438.0 15192
624.0 15204
746.0 15216
641.0 15229
527.0 15242
502.0 15254
553.0 15266
485.0 15279
502.0 15292
542.0 15304
476.0 15316
526.0 15329
523.0 15341
485.0 15353
551.0 15367
518.0 15379
519.0 15391
574.0 15404
508.0 15416
553.0 15429
546.0 15441
487.0 15454
531.0 15466
481.0 15478
463.0 15492
532.0 15504
481.0 15516
520.0 15528
551.0 15541
491.0 15553
561.0 15566
526.0 15579
503.0 15591
566.0 15603
493.0 15616
