498.0 2
466.0 4
395.0 6
309.0 9
238.0 11
186.0 13
157.0 16
139.0 18
133.0 20
137.0 23
157.0 28
271.0 37
275.0 48
341.0 57
350.0 66
385.0 75
399.0 84
414.0 94
439.0 103
443.0 114
465.0 124
482.0 135
507.0 145
539.0 155
517.0 165
556.0 176
523.0 187
567.0 197
523.0 207
582.0 218
527.0 228
590.0 238
538.0 249
607.0 260
545.0 270
596.0 280
519.0 290
695.0 301
826.0 311
764.0 322
575.0 332
633.0 343
598.0 353
599.0 363
577.0 373
588.0 385
580.0 395
574.0 405
584.0 415
560.0 425
583.0 436
552.0 447
594.0 457
548.0 467
610.0 478
554.0 488
608.0 498
548.0 508
621.0 520
543.0 530
588.0 540
520.0 550
555.0 561
491.0 571
539.0 582
494.0 592
526.0 603
505.0 613
511.0 623
501.0 633
506.0 644
514.0 655
499.0 665
517.0 675
494.0 686
517.0 696
482.0 706
533.0 717
487.0 728
540.0 738
497.0 748
548.0 758
485.0 769
536.0 780
473.0 790
528.0 800
462.0 811
517.0 821
462.0 831
490.0 841
469.0 852
500.0 863
471.0 873
476.0 883
455.0 893
587.0 904
769.0 915
635.0 925
517.0 935
529.0 946
535.0 956
480.0 966
525.0 976
468.0 988
534.0 998
467.0 1008
539.0 1019
484.0 1031
521.0 1042
520.0 1054
511.0 1065
536.0 1077
503.0 1088
555.0 1099
510.0 1111
570.0 1123
535.0 1134
528.0 1145
547.0 1157
484.0 1168
546.0 1180
482.0 1191
531.0 1203
513.0 1214
504.0 1225
538.0 1236
484.0 1249
538.0 1260
482.0 1271
514.0 1283
489.0 1294
479.0 1305
518.0 1317
470.0 1329
525.0 1340
485.0 1351
515.0 1362
497.0 1374
481.0 1386
507.0 1397
451.0 1409
503.0 1420
450.0 1431
486.0 1442
481.0 1455
463.0 1466
497.0 1477
415.0 1488
487.0 1500
637.0 1512
711.0 1523
520.0 1534
500.0 1546
530.0 1557
455.0 1568
516.0 1581
467.0 1592
500.0 1603
488.0 1614
479.0 1626
521.0 1637
478.0 1649
527.0 1660
494.0 1672
518.0 1683
515.0 1694
506.0 1705
554.0 1718
499.0 1729
553.0 1740
490.0 1752
505.0 1763
492.0 1774
477.0 1786
512.0 1798
455.0 1809
516.0 1820
469.0 1831
501.0 1843
502.0 1855
477.0 1866
513.0 1878
463.0 1889
510.0 1900
470.0 1912
499.0 1924
502.0 1935
486.0 1946
530.0 1957
475.0 1969
540.0 1981
480.0 1992
502.0 2003
491.0 2015
471.0 2026
512.0 2037
464.0 2050
513.0 2061
466.0 2072
494.0 2083
478.0 2095
437.0 2106
639.0 2118
727.0 2129
630.0 2141
502.0 2152
551.0 2163
531.0 2174
506.0 2187
543.0 2198
495.0 2209
545.0 2221
500.0 2232
526.0 2244
538.0 2255
505.0 2267
559.0 2278
505.0 2289
560.0 2300
528.0 2313
554.0 2324
559.0 2335
528.0 2347
561.0 2358
490.0 2369
538.0 2381
490.0 2393
506.0 2404
516.0 2415
480.0 2426
527.0 2438
471.0 2450
516.0 2461
476.0 2472
491.0 2484
498.0 2495
465.0 2506
517.0 2519
455.0 2530
505.0 2541
470.0 2552
486.0 2564
497.0 2575
467.0 2587
530.0 2598
470.0 2610
519.0 2621
471.0 2632
487.0 2644
499.0 2656
460.0 2667
508.0 2678
451.0 2690
500.0 2701
471.0 2713
480.0 2724
460.0 2736
534.0 2747
777.0 2758
590.0 2769
526.0 2782
520.0 2793
496.0 2804
508.0 2816
468.0 2827
517.0 2838
468.0 2850
519.0 2862
490.0 2873
500.0 2884
514.0 2895
487.0 2907
543.0 2919
486.0 2930
543.0 2941
511.0 2953
526.0 2964
543.0 2976
496.0 2988
537.0 2999
469.0 3010
509.0 3021
468.0 3033
486.0 3045
501.0 3056
461.0 3067
518.0 3079
447.0 3090
496.0 3101
473.0 3113
466.0 3125
492.0 3136
454.0 3147
505.0 3159
446.0 3170
507.0 3182
472.0 3193
475.0 3205
503.0 3216
462.0 3227
521.0 3238
466.0 3251
511.0 3262
480.0 3273
493.0 3284
521.0 3296
479.0 3307
544.0 3319
485.0 3331
521.0 3342
492.0 3353
487.0 3364
522.0 3377
475.0 3388
529.0 3399
475.0 3410
516.0 3422
490.0 3433
469.0 3445
511.0 3457
676.0 3468
753.0 3479
516.0 3490
550.0 3502
535.0 3514
511.0 3525
535.0 3536
489.0 3548
544.0 3559
481.0 3570
532.0 3582
512.0 3594
509.0 3605
534.0 3616
490.0 3628
560.0 3639
499.0 3651
548.0 3662
533.0 3674
535.0 3685
552.0 3696
496.0 3708
549.0 3720
466.0 3731
508.0 3742
488.0 3753
473.0 3765
512.0 3777
457.0 3788
515.0 3800
468.0 3811
500.0 3822
485.0 3833
485.0 3846
509.0 3857
455.0 3868
515.0 3879
460.0 3891
492.0 3902
483.0 3914
476.0 3926
503.0 3937
462.0 3948
520.0 3959
462.0 3971
507.0 3983
495.0 3994
476.0 4005
493.0 4017
445.0 4028
507.0 4039
463.0 4051
492.0 4063
477.0 4074
464.0 4085
499.0 4097
452.0 4109
472.0 4120
507.0 4131
775.0 4143
665.0 4154
496.0 4165
563.0 4177
486.0 4189
541.0 4200
488.0 4211
523.0 4222
503.0 4234
499.0 4246
534.0 4257
476.0 4269
545.0 4280
497.0 4291
537.0 4302
529.0 4315
513.0 4326
568.0 4337
514.0 4348
565.0 4360
516.0 4371
533.0 4383
509.0 4395
491.0 4406
527.0 4417
460.0 4428
518.0 4441
478.0 4452
499.0 4463
490.0 4474
469.0 4486
508.0 4497
460.0 4509
515.0 4520
459.0 4532
499.0 4543
486.0 4554
473.0 4566
518.0 4578
464.0 4589
526.0 4600
482.0 4612
510.0 4623
513.0 4634
493.0 4646
530.0 4658
466.0 4669
520.0 4680
469.0 4691
498.0 4703
497.0 4715
469.0 4726
522.0 4738
465.0 4749
501.0 4760
448.0 4771
637.0 4784
766.0 4795
571.0 4806
550.0 4817
513.0 4829
551.0 4841
495.0 4852
522.0 4864
523.0 4875
493.0 4886
540.0 4897
489.0 4910
544.0 4921
507.0 4932
534.0 4943
543.0 4955
513.0 4966
566.0 4978
509.0 4989
565.0 5001
525.0 5012
530.0 5023
526.0 5035
485.0 5047
525.0 5058
459.0 5069
519.0 5081
472.0 5092
486.0 5103
499.0 5115
465.0 5127
513.0 5138
459.0 5149
505.0 5160
469.0 5173
493.0 5184
496.0 5195
471.0 5207
515.0 5218
460.0 5229
520.0 5241
483.0 5253
505.0 5264
516.0 5275
478.0 5286
519.0 5298
461.0 5310
506.0 5321
471.0 5332
484.0 5344
497.0 5355
458.0 5366
519.0 5379
451.0 5390
464.0 5401
510.0 5412
748.0 5424
673.0 5435
485.0 5447
574.0 5458
482.0 5470
526.0 5481
493.0 5492
500.0 5504
527.0 5516
484.0 5527
538.0 5538
483.0 5550
535.0 5561
510.0 5573
520.0 5584
541.0 5596
507.0 5607
563.0 5618
507.0 5629
551.0 5642
512.0 5653
503.0 5664
509.0 5676
456.0 5687
511.0 5698
451.0 5710
496.0 5722
463.0 5733
479.0 5744
499.0 5755
453.0 5767
513.0 5779
457.0 5790
501.0 5801
474.0 5813
478.0 5824
501.0 5835
456.0 5848
512.0 5859
459.0 5870
502.0 5881
481.0 5893
497.0 5905
522.0 5916
477.0 5927
520.0 5939
469.0 5950
501.0 5961
482.0 5974
486.0 5985
503.0 5996
468.0 6007
509.0 6019
458.0 6030
465.0 6042
516.0 6053
745.0 6065
685.0 6076
492.0 6087
565.0 6098
493.0 6111
522.0 6122
502.0 6133
501.0 6145
521.0 6156
485.0 6167
543.0 6179
490.0 6191
530.0 6202
515.0 6213
522.0 6224
548.0 6236
521.0 6248
564.0 6259
531.0 6270
555.0 6282
531.0 6293
524.0 6305
527.0 6317
486.0 6328
520.0 6339
478.0 6350
503.0 6362
488.0 6374
489.0 6385
504.0 6396
470.0 6408
510.0 6419
465.0 6430
498.0 6443
475.0 6454
477.0 6465
501.0 6476
462.0 6488
506.0 6499
484.0 6511
507.0 6522
502.0 6534
511.0 6545
507.0 6556
483.0 6567
505.0 6580
473.0 6591
494.0 6602
480.0 6614
472.0 6625
489.0 6637
470.0 6648
497.0 6660
440.0 6671
518.0 6682
734.0 6693
692.0 6706
517.0 6717
501.0 6728
522.0 6739
477.0 6751
498.0 6762
492.0 6774
493.0 6786
507.0 6797
488.0 6808
517.0 6819
492.0 6831
518.0 6843
513.0 6854
520.0 6865
536.0 6877
524.0 6888
545.0 6899
523.0 6912
537.0 6923
510.0 6934
496.0 6945
498.0 6957
467.0 6968
493.0 6980
464.0 6991
485.0 7003
475.0 7014
476.0 7025
486.0 7037
465.0 7049
489.0 7060
474.0 7071
491.0 7083
474.0 7094
485.0 7106
492.0 7117
484.0 7129
514.0 7140
494.0 7151
511.0 7162
509.0 7175
501.0 7186
504.0 7197
490.0 7208
503.0 7220
474.0 7231
501.0 7243
481.0 7255
487.0 7266
488.0 7277
467.0 7288
459.0 7300
561.0 7312
786.0 7323
632.0 7334
502.0 7346
538.0 7357
499.0 7369
508.0 7380
488.0 7392
510.0 7403
496.0 7414
505.0 7426
517.0 7438
510.0 7449
525.0 7460
515.0 7472
534.0 7483
527.0 7494
536.0 7506
538.0 7518
536.0 7529
551.0 7540
521.0 7552
531.0 7563
502.0 7575
494.0 7586
496.0 7598
489.0 7609
502.0 7620
487.0 7631
498.0 7644
491.0 7655
488.0 7666
499.0 7677
475.0 7689
497.0 7700
489.0 7712
500.0 7724
499.0 7735
500.0 7746
508.0 7757
497.0 7770
516.0 7781
495.0 7792
513.0 7803
511.0 7815
508.0 7826
524.0 7838
507.0 7849
521.0 7861
494.0 7872
498.0 7883
488.0 7895
490.0 7907
501.0 7918
483.0 7929
500.0 7941
482.0 7952
494.0 7963
474.0 7975
461.0 7987
654.0 7998
755.0 8009
584.0 8020
519.0 8032
539.0 8044
513.0 8055
501.0 8067
516.0 8078
491.0 8089
509.0 8101
492.0 8113
501.0 8124
506.0 8135
498.0 8146
534.0 8158
511.0 8170
546.0 8181
530.0 8193
548.0 8204
557.0 8215
538.0 8226
550.0 8239
510.0 8250
528.0 8261
496.0 8272
500.0 8284
505.0 8295
483.0 8307
511.0 8318
478.0 8330
510.0 8341
488.0 8352
499.0 8364
505.0 8376
489.0 8387
518.0 8398
479.0 8410
507.0 8421
485.0 8432
499.0 8444
505.0 8456
484.0 8467
512.0 8478
474.0 8489
511.0 8502
499.0 8513
504.0 8524
525.0 8536
502.0 8547
529.0 8558
491.0 8570
517.0 8582
499.0 8593
506.0 8604
513.0 8615
495.0 8627
522.0 8639
489.0 8650
511.0 8662
472.0 8673
523.0 8684
761.0 8695
704.0 8708
544.0 8719
527.0 8730
537.0 8741
513.0 8753
507.0 8764
525.0 8776
493.0 8787
530.0 8799
498.0 8810
523.0 8821
516.0 8834
524.0 8845
539.0 8856
523.0 8867
558.0 8879
524.0 8890
564.0 8902
549.0 8913
546.0 8925
539.0 8936
504.0 8947
522.0 8958
480.0 8971
502.0 8982
485.0 8993
489.0 9005
501.0 9016
472.0 9027
509.0 9039
474.0 9051
505.0 9062
488.0 9073
490.0 9084
498.0 9096
485.0 9108
510.0 9119
484.0 9131
506.0 9142
489.0 9153
493.0 9164
505.0 9177
487.0 9188
519.0 9199
501.0 9210
513.0 9222
498.0 9234
505.0 9245
501.0 9256
490.0 9268
505.0 9279
471.0 9290
501.0 9303
474.0 9314
485.0 9325
474.0 9336
448.0 9348
637.0 9359
762.0 9371
597.0 9382
489.0 9394
519.0 9405
495.0 9416
475.0 9427
502.0 9440
476.0 9451
500.0 9462
490.0 9474
506.0 9485
514.0 9496
513.0 9508
527.0 9520
524.0 9531
543.0 9542
534.0 9553
546.0 9566
551.0 9577
540.0 9588
536.0 9600
508.0 9611
509.0 9622
499.0 9634
487.0 9646
483.0 9657
475.0 9668
482.0 9679
464.0 9691
478.0 9703
466.0 9714
478.0 9725
476.0 9737
469.0 9748
493.0 9759
485.0 9772
495.0 9783
494.0 9794
503.0 9805
511.0 9817
509.0 9828
529.0 9840
504.0 9851
508.0 9863
497.0 9874
492.0 9885
483.0 9896
479.0 9909
495.0 9920
478.0 9931
491.0 9943
489.0 9954
456.0 9966
507.0 9977
734.0 9989
724.0 10000
512.0 10012
530.0 10024
514.0 10038
500.0 10050
506.0 10062
500.0 10075
501.0 10087
518.0 10100
506.0 10113
516.0 10125
527.0 10137
520.0 10149
536.0 10162
537.0 10175
534.0 10187
557.0 10200
537.0 10212
526.0 10224
515.0 10237
484.0 10250
496.0 10262
477.0 10274
472.0 10287
490.0 10300
475.0 10312
480.0 10324
491.0 10337
474.0 10349
491.0 10361
488.0 10375
486.0 10387
496.0 10399
478.0 10412
491.0 10424
494.0 10437
479.0 10449
499.0 10462
493.0 10474
498.0 10486
511.0 10500
511.0 10512
512.0 10524
507.0 10536
485.0 10549
499.0 10561
493.0 10574
484.0 10587
504.0 10599
483.0 10611
495.0 10624
468.0 10637
498.0 10649
765.0 10661
684.0 10674
518.0 10686
549.0 10699
508.0 10712
513.0 10724
513.0 10736
495.0 10748
509.0 10761
505.0 10774
500.0 10786
516.0 10799
514.0 10811
523.0 10823
540.0 10836
530.0 10849
552.0 10861
545.0 10873
540.0 10886
538.0 10899
506.0 10911
505.0 10924
500.0 10936
483.0 10948
498.0 10960
490.0 10974
491.0 10986
497.0 10998
482.0 11011
497.0 11023
500.0 11036
488.0 11048
504.0 11061
495.0 11073
490.0 11085
500.0 11099
484.0 11111
498.0 11123
488.0 11136
487.0 11148
506.0 11160
495.0 11173
508.0 11186
519.0 11198
494.0 11210
505.0 11223
499.0 11236
485.0 11248
504.0 11260
489.0 11273
482.0 11285
499.0 11298
479.0 11311
450.0 11323
582.0 11335
759.0 11347
591.0 11360
506.0 11373
513.0 11385
497.0 11398
484.0 11410
496.0 11422
493.0 11436
485.0 11448
516.0 11460
497.0 11472
502.0 11485
520.0 11498
509.0 11510
536.0 11523
536.0 11535
540.0 11547
553.0 11559
533.0 11573
514.0 11585
509.0 11597
485.0 11610
485.0 11622
484.0 11635
471.0 11648
480.0 11660
472.0 11672
473.0 11684
483.0 11698
468.0 11710
481.0 11722
476.0 11735
471.0 11747
492.0 11759
478.0 11772
478.0 11785
490.0 11797
485.0 11809
499.0 11822
505.0 11835
505.0 11847
513.0 11859
491.0 11872
494.0 11884
498.0 11897
483.0 11910
496.0 11922
488.0 11934
481.0 11947
492.0 11959
469.0 11972
470.0 11984
697.0 11997
724.0 12009
539.0 12021
530.0 12035
507.0 12047
510.0 12059
497.0 12071
500.0 12084
509.0 12097
497.0 12109
513.0 12122
519.0 12134
511.0 12146
528.0 12158
527.0 12172
536.0 12184
541.0 12196
535.0 12209
542.0 12221
526.0 12234
506.0 12247
507.0 12259
480.0 12271
478.0 12283
487.0 12297
473.0 12309
485.0 12321
486.0 12334
467.0 12346
486.0 12358
470.0 12371
484.0 12384
486.0 12396
471.0 12408
494.0 12421
494.0 12434
490.0 12446
510.0 12459
497.0 12471
496.0 12483
500.0 12496
486.0 12509
496.0 12521
483.0 12533
482.0 12546
493.0 12558
477.0 12571
489.0 12583
459.0 12596
548.0 12608
790.0 12620
625.0 12634
506.0 12646
528.0 12658
496.0 12670
498.0 12683
502.0 12696
492.0 12708
503.0 12721
505.0 12733
499.0 12745
516.0 12758
518.0 12771
530.0 12783
536.0 12795
537.0 12808
544.0 12820
535.0 12833
525.0 12846
521.0 12858
493.0 12870
489.0 12882
483.0 12896
474.0 12908
480.0 12920
479.0 12933
470.0 12945
447.0 12957
454.0 12971
441.0 12983
489.0 12995
446.0 13007
475.0 13020
500.0 13033
454.0 13045
520.0 13058
489.0 13070
494.0 13082
544.0 13095
479.0 13108
513.0 13120
519.0 13132
477.0 13145
526.0 13157
493.0 13170
494.0 13182
539.0 13195
479.0 13207
474.0 13219
594.0 13233
768.0 13245
647.0 13257
531.0 13270
543.0 13282
560.0 13295
504.0 13307
536.0 13320
540.0 13332
501.0 13344
552.0 13357
520.0 13370
517.0 13382
570.0 13394
516.0 13407
559.0 13419
573.0 13432
533.0 13445
597.0 13457
544.0 13469
538.0 13481
559.0 13495
498.0 13507
523.0 13519
524.0 13532
484.0 13544
540.0 13556
502.0 13570
500.0 13582
534.0 13594
478.0 13606
512.0 13619
502.0 13632
480.0 13644
525.0 13657
493.0 13669
495.0 13681
534.0 13694
484.0 13707
525.0 13719
528.0 13731
503.0 13744
539.0 13756
492.0 13769
492.0 13782
522.0 13794
474.0 13806
503.0 13818
502.0 13832
479.0 13844
512.0 13856
437.0 13869
555.0 13881
782.0 13894
582.0 13906
513.0 13919
528.0 13931
478.0 13943
519.0 13956
481.0 13969
488.0 13981
514.0 13993
480.0 14006
508.0 14018
510.0 14031
483.0 14044
537.0 14056
500.0 14068
513.0 14081
550.0 14094
503.0 14106
538.0 14118
521.0 14131
475.0 14143
518.0 14155
467.0 14169
470.0 14181
497.0 14193
448.0 14205
493.0 14218
488.0 14231
461.0 14243
508.0 14256
469.0 14268
470.0 14280
510.0 14294
450.0 14306
498.0 14318
484.0 14330
457.0 14343
518.0 14355
473.0 14368
495.0 14381
530.0 14393
478.0 14405
519.0 14417
502.0 14431
474.0 14443
516.0 14455
474.0 14468
491.0 14480
516.0 14493
463.0 14505
504.0 14518
480.0 14530
661.0 14542
757.0 14555
530.0 14568
545.0 14580
550.0 14593
488.0 14605
531.0 14617
525.0 14630
490.0 14643
545.0 14655
502.0 14667
524.0 14680
550.0 14693
510.0 14705
551.0 14717
545.0 14730
521.0 14742
577.0 14754
521.0 14768
532.0 14780
530.0 14792
472.0 14804
499.0 14817
487.0 14830
454.0 14842
512.0 14855
454.0 14867
475.0 14879
493.0 14893
451.0 14905
489.0 14917
480.0 14929
454.0 14942
505.0 14954
454.0 14967
482.0 14980
497.0 14992
471.0 15004
511.0 15016
493.0 15030
456.0 15042
507.0 15054
454.0 15067
472.0 15079
490.0 15092
446.0 15105
489.0 15117
476.0 15129
426.0 15141
510.0 15154
677.0 15167
688.0 15179
522.0 15192
495.0 15204
522.0 15216
489.0 15229
478.0 15242
519.0 15254
477.0 15266
492.0 15279
513.0 15292
474.0 15304
528.0 15316
515.0 15329
504.0 15341
560.0 15353
515.0 15367
535.0 15379
555.0 15391
497.0 15404
520.0 15416
490.0 15429
468.0 15441
519.0 15454
463.0 15466
479.0 15478
498.0 15492
451.0 15504
499.0 15516
473.0 15528
459.0 15541
504.0 15553
458.0 15566
477.0 15579
499.0 15591
462.0 15603
507.0 15616
493.0 15629
487.0 15641
518.0 15653
463.0 15666
483.0 15678
490.0 15691
455.0 15704
490.0 15716
468.0 15728
458.0 15740
503.0 15753
423.0 15766
513.0 15778
760.0 15791
630.0 15803
510.0 15815
522.0 15828
489.0 15841
527.0 15853
484.0 15865
511.0 15878
520.0 15891
493.0 15903
527.0 15916
522.0 15928
523.0 15940
555.0 15952
538.0 15966
561.0 15978
568.0 15990
567.0 16003
585.0 16015
558.0 16028
550.0 16040
557.0 16053
528.0 16065
551.0 16077
550.0 16091
533.0 16103
564.0 16115
544.0 16128
549.0 16140
567.0 16152
534.0 16165
559.0 16178
551.0 16190
554.0 16202
563.0 16215
557.0 16228
561.0 16240
566.0 16252
557.0 16265
570.0 16277
556.0 16290
528.0 16303
513.0 16315
491.0 16327
487.0 16339
479.0 16352
463.0 16365
484.0 16377
485.0 16390
462.0 16402
427.0 16414
532.0 16428
714.0 16440
540.0 16452
443.0 16464
456.0 16477
430.0 16490
421.0 16502
431.0 16515
418.0 16527
425.0 16539
453.0 16551
434.0 16565
452.0 16577
448.0 16589
450.0 16602
459.0 16614
467.0 16627
464.0 16640
483.0 16652
478.0 16664
487.0 16676
458.0 16690
453.0 16702
445.0 16714
440.0 16727
447.0 16739
445.0 16751
427.0 16764
435.0 16777
432.0 16789
426.0 16801
439.0 16814
425.0 16827
438.0 16839
434.0 16851
422.0 16864
431.0 16876
431.0 16889
422.0 16902
441.0 16914
430.0 16926
445.0 16939
445.0 16951
446.0 16964
460.0 16976
447.0 16989
442.0 17001
453.0 17013
444.0 17027
440.0 17039
449.0 17051
438.0 17063
446.0 17076
449.0 17089
416.0 17101
516.0 17114
745.0 17126
613.0 17138
495.0 17150
510.0 17164
508.0 17176
502.0 17188
512.0 17201
518.0 17213
522.0 17226
521.0 17239
526.0 17251
517.0 17263
527.0 17275
525.0 17289
538.0 17301
544.0 17313
548.0 17326
555.0 17338
551.0 17350
527.0 17363
525.0 17376
505.0 17388
505.0 17400
505.0 17413
495.0 17426
493.0 17438
500.0 17451
480.0 17463
493.0 17475
490.0 17488
480.0 17501
495.0 17513
482.0 17525
489.0 17538
499.0 17550
490.0 17563
502.0 17575
504.0 17588
498.0 17600
517.0 17612
510.0 17626
511.0 17638
501.0 17650
496.0 17662
504.0 17675
499.0 17688
499.0 17700
510.0 17713
504.0 17725
502.0 17737
471.0 17750
577.0 17763
818.0 17775
661.0 17787
531.0 17800
562.0 17812
530.0 17825
537.0 17838
536.0 17850
530.0 17862
539.0 17874
540.0 17888
544.0 17900
553.0 17912
557.0 17925
573.0 17937
577.0 17949
580.0 17963
596.0 17975
592.0 17987
585.0 17999
584.0 18012
560.0 18025
549.0 18037
551.0 18050
538.0 18062
544.0 18074
546.0 18087
579.0 18100
576.0 18112
573.0 18124
