841.0 2
789.0 4
624.0 6
420.0 9
252.0 11
139.0 13
95.0 16
82.0 18
80.0 20
84.0 23
81.0 25
70.0 31
130.0 40
111.0 51
153.0 60
153.0 69
156.0 78
171.0 88
144.0 97
155.0 106
320.0 117
400.0 128
265.0 138
237.0 148
244.0 158
216.0 168
256.0 179
235.0 190
261.0 200
236.0 210
298.0 221
265.0 231
304.0 241
287.0 252
331.0 263
263.0 273
350.0 283
287.0 293
362.0 304
344.0 315
365.0 325
336.0 335
362.0 346
331.0 356
334.0 366
324.0 376
358.0 388
338.0 398
347.0 408
346.0 418
351.0 429
363.0 439
347.0 450
373.0 460
335.0 471
395.0 481
356.0 491
384.0 501
397.0 512
419.0 523
359.0 533
401.0 543
339.0 553
416.0 564
349.0 574
406.0 585
364.0 595
408.0 606
346.0 616
513.0 626
613.0 636
500.0 648
364.0 658
433.0 668
395.0 678
426.0 689
430.0 699
420.0 709
428.0 720
440.0 731
460.0 741
437.0 751
472.0 761
429.0 772
458.0 783
485.0 793
478.0 803
453.0 814
495.0 824
470.0 834
518.0 844
477.0 856
505.0 866
472.0 876
490.0 886
450.0 897
489.0 907
465.0 918
504.0 928
478.0 939
505.0 949
479.0 959
493.0 969
509.0 980
511.0 991
523.0 1001
515.0 1012
554.0 1024
526.0 1035
559.0 1047
518.0 1058
528.0 1070
535.0 1081
525.0 1092
540.0 1103
526.0 1116
516.0 1127
574.0 1138
793.0 1149
651.0 1161
491.0 1172
576.0 1184
522.0 1196
552.0 1207
536.0 1218
553.0 1229
533.0 1241
548.0 1253
573.0 1264
559.0 1275
553.0 1287
557.0 1298
582.0 1309
587.0 1321
574.0 1333
605.0 1344
596.0 1355
599.0 1367
570.0 1379
575.0 1390
558.0 1401
548.0 1413
557.0 1424
536.0 1435
558.0 1447
535.0 1459
550.0 1470
528.0 1481
541.0 1492
539.0 1504
552.0 1516
557.0 1527
548.0 1539
567.0 1550
533.0 1561
526.0 1572
543.0 1585
510.0 1596
532.0 1607
510.0 1618
523.0 1630
478.0 1641
521.0 1653
708.0 1665
658.0 1676
514.0 1687
498.0 1698
508.0 1710
500.0 1722
499.0 1733
516.0 1744
494.0 1756
537.0 1767
522.0 1779
536.0 1790
505.0 1802
544.0 1813
545.0 1824
511.0 1836
570.0 1848
534.0 1859
569.0 1870
523.0 1882
538.0 1893
505.0 1904
513.0 1916
521.0 1928
491.0 1939
527.0 1950
490.0 1961
516.0 1973
504.0 1985
506.0 1996
519.0 2008
495.0 2019
529.0 2030
499.0 2041
538.0 2054
513.0 2065
516.0 2076
513.0 2087
487.0 2099
513.0 2111
485.0 2122
507.0 2134
484.0 2145
496.0 2156
461.0 2167
517.0 2180
738.0 2191
583.0 2202
500.0 2213
487.0 2225
503.0 2236
508.0 2248
489.0 2259
518.0 2271
493.0 2282
516.0 2293
495.0 2305
530.0 2317
517.0 2328
511.0 2339
545.0 2351
505.0 2362
550.0 2373
529.0 2385
547.0 2397
533.0 2408
504.0 2419
522.0 2430
474.0 2442
513.0 2454
470.0 2465
503.0 2477
476.0 2488
468.0 2499
488.0 2511
468.0 2523
486.0 2534
479.0 2545
501.0 2556
481.0 2568
490.0 2580
507.0 2591
455.0 2603
489.0 2614
460.0 2625
476.0 2636
457.0 2649
464.0 2660
462.0 2671
421.0 2682
596.0 2694
642.0 2705
531.0 2717
444.0 2728
469.0 2740
469.0 2751
445.0 2762
484.0 2774
456.0 2786
488.0 2797
462.0 2808
481.0 2820
491.0 2831
469.0 2843
506.0 2854
465.0 2866
505.0 2877
476.0 2888
502.0 2899
508.0 2912
507.0 2923
490.0 2934
466.0 2946
478.0 2957
443.0 2968
482.0 2980
465.0 2992
462.0 3003
490.0 3014
449.0 3025
486.0 3037
460.0 3049
480.0 3060
475.0 3072
464.0 3083
492.0 3094
444.0 3105
491.0 3118
447.0 3129
475.0 3140
450.0 3151
452.0 3163
468.0 3174
407.0 3186
546.0 3197
692.0 3209
569.0 3220
423.0 3231
479.0 3244
475.0 3255
444.0 3266
487.0 3277
449.0 3289
481.0 3300
464.0 3312
477.0 3323
487.0 3335
460.0 3346
508.0 3357
455.0 3368
499.0 3381
470.0 3392
496.0 3403
504.0 3415
478.0 3426
489.0 3437
462.0 3449
481.0 3461
451.0 3472
471.0 3483
460.0 3494
459.0 3506
485.0 3518
454.0 3529
481.0 3540
465.0 3552
489.0 3563
481.0 3575
483.0 3587
499.0 3598
457.0 3609
476.0 3620
451.0 3632
480.0 3644
462.0 3655
461.0 3666
483.0 3678
408.0 3689
528.0 3700
692.0 3713
592.0 3724
439.0 3735
489.0 3746
483.0 3758
449.0 3769
493.0 3781
463.0 3792
498.0 3804
479.0 3815
494.0 3826
507.0 3837
500.0 3850
526.0 3861
493.0 3872
521.0 3884
499.0 3895
519.0 3906
531.0 3918
501.0 3930
511.0 3941
486.0 3952
491.0 3963
475.0 3976
492.0 3987
480.0 3998
476.0 4009
490.0 4021
460.0 4032
503.0 4044
481.0 4056
498.0 4067
490.0 4078
480.0 4089
482.0 4101
464.0 4113
475.0 4124
445.0 4135
483.0 4147
459.0 4158
459.0 4169
467.0 4182
442.0 4193
645.0 4204
641.0 4215
489.0 4227
459.0 4238
475.0 4250
474.0 4261
453.0 4273
486.0 4284
454.0 4295
484.0 4307
471.0 4319
479.0 4330
495.0 4341
476.0 4353
500.0 4364
483.0 4376
507.0 4387
489.0 4399
509.0 4410
506.0 4421
474.0 4432
493.0 4445
461.0 4456
481.0 4467
456.0 4478
462.0 4490
452.0 4501
457.0 4513
474.0 4525
446.0 4536
488.0 4547
459.0 4558
476.0 4570
479.0 4582
458.0 4593
483.0 4604
451.0 4616
478.0 4627
453.0 4638
477.0 4651
456.0 4662
445.0 4673
438.0 4684
539.0 4696
702.0 4708
491.0 4719
455.0 4730
458.0 4742
457.0 4753
458.0 4764
456.0 4776
483.0 4788
458.0 4799
496.0 4810
467.0 4822
493.0 4833
509.0 4845
495.0 4856
508.0 4868
494.0 4879
510.0 4890
497.0 4901
520.0 4914
500.0 4925
471.0 4936
485.0 4947
460.0 4959
479.0 4970
462.0 4982
474.0 4994
476.0 5005
472.0 5016
484.0 5027
463.0 5040
495.0 5051
469.0 5062
495.0 5073
483.0 5085
465.0 5096
483.0 5108
456.0 5120
472.0 5131
459.0 5142
479.0 5153
456.0 5165
448.0 5177
472.0 5188
631.0 5199
688.0 5211
454.0 5222
487.0 5233
483.0 5245
479.0 5257
484.0 5268
475.0 5279
495.0 5291
479.0 5302
522.0 5314
492.0 5325
514.0 5337
520.0 5348
504.0 5359
532.0 5370
514.0 5383
539.0 5394
528.0 5405
530.0 5416
515.0 5428
490.0 5440
523.0 5451
486.0 5463
517.0 5474
491.0 5485
497.0 5496
510.0 5509
488.0 5520
513.0 5531
490.0 5542
523.0 5554
486.0 5565
528.0 5577
506.0 5588
494.0 5600
518.0 5611
476.0 5622
503.0 5634
487.0 5646
504.0 5657
488.0 5668
481.0 5680
459.0 5691
503.0 5702
743.0 5714
606.0 5726
467.0 5737
489.0 5748
473.0 5760
489.0 5772
474.0 5783
506.0 5794
479.0 5806
519.0 5817
488.0 5828
510.0 5840
525.0 5852
495.0 5863
529.0 5874
496.0 5885
530.0 5897
514.0 5909
524.0 5920
519.0 5932
493.0 5943
504.0 5954
460.0 5965
502.0 5978
467.0 5989
476.0 6000
484.0 6011
461.0 6023
491.0 6034
469.0 6046
493.0 6057
466.0 6069
486.0 6080
480.0 6091
475.0 6103
488.0 6115
452.0 6126
480.0 6137
451.0 6149
465.0 6160
449.0 6172
458.0 6183
458.0 6195
423.0 6206
613.0 6217
656.0 6228
507.0 6241
446.0 6252
460.0 6263
484.0 6275
440.0 6286
482.0 6297
459.0 6309
485.0 6321
472.0 6332
479.0 6343
491.0 6354
466.0 6366
517.0 6378
489.0 6389
511.0 6401
498.0 6412
517.0 6423
519.0 6434
494.0 6447
504.0 6458
460.0 6469
483.0 6480
458.0 6492
475.0 6504
472.0 6515
467.0 6526
483.0 6538
463.0 6549
476.0 6560
473.0 6573
491.0 6584
487.0 6595
488.0 6606
512.0 6618
476.0 6629
494.0 6641
472.0 6652
477.0 6664
480.0 6675
456.0 6686
482.0 6697
469.0 6710
451.0 6721
572.0 6732
731.0 6744
524.0 6755
455.0 6766
511.0 6778
469.0 6790
495.0 6801
480.0 6812
499.0 6823
485.0 6835
499.0 6847
517.0 6858
491.0 6870
516.0 6881
489.0 6892
528.0 6904
512.0 6916
524.0 6927
541.0 6938
510.0 6949
522.0 6961
493.0 6973
507.0 6984
473.0 6995
490.0 7007
494.0 7018
466.0 7029
503.0 7042
479.0 7053
496.0 7064
478.0 7075
486.0 7087
487.0 7098
490.0 7110
514.0 7121
489.0 7133
501.0 7144
469.0 7155
482.0 7166
476.0 7179
456.0 7190
478.0 7201
455.0 7213
466.0 7224
418.0 7236
584.0 7247
709.0 7259
510.0 7270
441.0 7281
457.0 7292
476.0 7305
451.0 7316
476.0 7327
463.0 7339
463.0 7350
486.0 7361
470.0 7373
502.0 7385
468.0 7396
512.0 7407
487.0 7418
492.0 7430
518.0 7442
501.0 7453
519.0 7464
485.0 7476
492.0 7487
459.0 7498
480.0 7511
473.0 7522
461.0 7533
496.0 7544
459.0 7556
486.0 7567
466.0 7579
472.0 7590
479.0 7602
470.0 7613
496.0 7624
473.0 7636
511.0 7648
483.0 7659
491.0 7670
476.0 7682
462.0 7693
489.0 7705
468.0 7716
482.0 7728
465.0 7739
479.0 7750
431.0 7761
561.0 7774
737.0 7785
521.0 7796
468.0 7808
478.0 7819
491.0 7830
481.0 7842
483.0 7854
509.0 7865
482.0 7876
502.0 7887
483.0 7899
525.0 7911
497.0 7922
519.0 7933
525.0 7945
511.0 7956
542.0 7968
520.0 7980
539.0 7991
508.0 8002
504.0 8013
499.0 8025
485.0 8037
506.0 8048
467.0 8059
508.0 8071
466.0 8082
484.0 8093
493.0 8105
480.0 8117
492.0 8128
480.0 8139
501.0 8151
479.0 8162
504.0 8174
510.0 8185
481.0 8197
497.0 8208
471.0 8219
486.0 8230
470.0 8243
492.0 8254
476.0 8265
475.0 8276
458.0 8288
575.0 8299
742.0 8311
536.0 8323
465.0 8334
496.0 8345
481.0 8356
495.0 8369
481.0 8380
500.0 8391
490.0 8402
512.0 8414
494.0 8425
505.0 8437
529.0 8449
497.0 8460
534.0 8471
503.0 8482
527.0 8494
524.0 8506
524.0 8517
519.0 8528
495.0 8540
515.0 8551
475.0 8562
513.0 8574
489.0 8586
501.0 8597
507.0 8608
490.0 8620
520.0 8631
497.0 8643
520.0 8654
497.0 8666
517.0 8677
527.0 8688
506.0 8700
542.0 8712
499.0 8723
520.0 8734
494.0 8745
514.0 8757
502.0 8769
495.0 8780
512.0 8792
463.0 8803
526.0 8814
720.0 8825
680.0 8838
480.0 8849
515.0 8860
528.0 8871
485.0 8883
524.0 8894
501.0 8906
529.0 8918
509.0 8929
529.0 8940
544.0 8951
520.0 8963
558.0 8975
533.0 8986
560.0 8997
543.0 9009
558.0 9020
567.0 9031
539.0 9043
554.0 9055
515.0 9066
529.0 9077
504.0 9089
519.0 9101
526.0 9112
509.0 9123
535.0 9135
503.0 9146
534.0 9157
499.0 9169
522.0 9181
526.0 9192
517.0 9203
548.0 9214
514.0 9226
547.0 9238
497.0 9249
517.0 9261
505.0 9272
493.0 9283
507.0 9294
490.0 9307
520.0 9318
443.0 9329
571.0 9340
760.0 9352
591.0 9363
490.0 9375
489.0 9387
512.0 9398
484.0 9409
510.0 9420
492.0 9433
509.0 9444
523.0 9455
506.0 9466
536.0 9478
501.0 9489
538.0 9501
520.0 9512
523.0 9524
539.0 9535
515.0 9546
543.0 9558
498.0 9570
508.0 9581
476.0 9592
490.0 9604
497.0 9615
470.0 9626
503.0 9638
472.0 9650
490.0 9661
473.0 9672
478.0 9683
481.0 9695
474.0 9707
496.0 9718
475.0 9730
499.0 9741
476.0 9752
476.0 9763
465.0 9776
456.0 9787
476.0 9798
450.0 9809
473.0 9821
454.0 9833
466.0 9844
439.0 9856
608.0 9867
698.0 9878
464.0 9889
475.0 9902
457.0 9913
470.0 9924
467.0 9935
454.0 9947
479.0 9958
455.0 9970
490.0 9981
459.0 9993
499.0 10004
484.0 10016
475.0 10029
514.0 10042
481.0 10054
507.0 10066
512.0 10079
457.0 10091
500.0 10104
463.0 10117
462.0 10129
494.0 10141
459.0 10153
490.0 10167
477.0 10179
460.0 10191
491.0 10204
458.0 10216
468.0 10228
497.0 10242
479.0 10254
498.0 10266
495.0 10278
472.0 10291
497.0 10304
461.0 10316
468.0 10329
482.0 10341
460.0 10353
491.0 10366
469.0 10379
422.0 10391
639.0 10403
656.0 10416
472.0 10428
486.0 10441
460.0 10454
484.0 10466
467.0 10478
469.0 10490
503.0 10504
477.0 10516
501.0 10528
503.0 10541
494.0 10553
528.0 10566
502.0 10578
517.0 10591
531.0 10603
504.0 10615
516.0 10628
492.0 10641
472.0 10653
498.0 10665
461.0 10678
470.0 10690
492.0 10703
460.0 10716
489.0 10728
465.0 10740
465.0 10753
486.0 10766
464.0 10778
485.0 10790
488.0 10803
461.0 10815
493.0 10827
454.0 10841
457.0 10853
468.0 10865
434.0 10877
466.0 10890
469.0 10903
439.0 10915
450.0 10928
569.0 10940
665.0 10952
471.0 10966
443.0 10978
469.0 10990
453.0 11002
451.0 11015
484.0 11027
463.0 11040
477.0 11053
490.0 11065
460.0 11077
490.0 11089
472.0 11103
481.0 11115
506.0 11127
488.0 11140
509.0 11152
493.0 11165
467.0 11177
485.0 11190
458.0 11202
465.0 11214
482.0 11227
460.0 11240
491.0 11252
474.0 11265
464.0 11277
491.0 11289
463.0 11302
485.0 11315
486.0 11327
483.0 11339
503.0 11352
496.0 11365
487.0 11377
503.0 11389
477.0 11402
488.0 11414
489.0 11426
475.0 11440
504.0 11452
459.0 11464
475.0 11476
697.0 11489
627.0 11502
477.0 11514
490.0 11527
478.0 11539
498.0 11551
484.0 11565
497.0 11577
510.0 11589
491.0 11601
520.0 11614
504.0 11626
510.0 11639
544.0 11652
513.0 11664
529.0 11676
531.0 11688
506.0 11702
523.0 11714
488.0 11726
486.0 11739
506.0 11751
485.0 11764
503.0 11777
489.0 11789
484.0 11801
505.0 11813
475.0 11826
491.0 11839
500.0 11851
485.0 11864
510.0 11876
491.0 11888
497.0 11901
503.0 11914
462.0 11926
481.0 11938
478.0 11951
464.0 11964
488.0 11976
463.0 11988
437.0 12001
541.0 12013
715.0 12025
567.0 12039
447.0 12051
480.0 12063
483.0 12076
452.0 12088
483.0 12101
493.0 12113
468.0 12126
493.0 12138
483.0 12150
492.0 12164
509.0 12176
490.0 12188
512.0 12200
517.0 12213
494.0 12225
513.0 12238
475.0 12251
471.0 12263
483.0 12275
455.0 12288
486.0 12301
475.0 12313
462.0 12325
492.0 12338
459.0 12350
474.0 12363
488.0 12376
471.0 12388
496.0 12400
476.0 12412
475.0 12425
511.0 12438
466.0 12450
484.0 12463
490.0 12475
463.0 12487
497.0 12500
470.0 12513
476.0 12525
465.0 12537
468.0 12550
729.0 12563
624.0 12575
434.0 12588
525.0 12600
470.0 12612
483.0 12624
512.0 12638
481.0 12650
509.0 12662
506.0 12675
484.0 12687
535.0 12700
505.0 12712
526.0 12725
537.0 12737
518.0 12749
548.0 12763
532.0 12775
491.0 12787
518.0 12800
485.0 12812
499.0 12824
503.0 12837
480.0 12850
505.0 12862
487.0 12874
470.0 12887
507.0 12900
470.0 12912
492.0 12924
493.0 12937
475.0 12949
517.0 12962
491.0 12975
485.0 12987
496.0 12999
463.0 13011
494.0 13024
478.0 13037
464.0 13049
491.0 13062
452.0 13074
447.0 13086
670.0 13100
630.0 13112
474.0 13124
463.0 13136
457.0 13149
488.0 13162
461.0 13174
475.0 13187
493.0 13199
466.0 13211
504.0 13223
476.0 13237
483.0 13249
519.0 13261
480.0 13274
502.0 13286
494.0 13299
479.0 13312
482.0 13324
447.0 13336
450.0 13348
478.0 13362
441.0 13374
479.0 13386
453.0 13399
450.0 13411
478.0 13423
452.0 13436
465.0 13449
476.0 13461
447.0 13473
477.0 13486
474.0 13499
461.0 13511
500.0 13523
456.0 13536
471.0 13548
477.0 13561
451.0 13574
479.0 13586
447.0 13598
466.0 13611
474.0 13623
462.0 13636
715.0 13648
621.0 13661
446.0 13673
508.0 13685
467.0 13699
485.0 13711
495.0 13723
475.0 13735
499.0 13748
487.0 13761
498.0 13773
519.0 13786
505.0 13798
528.0 13810
536.0 13822
528.0 13836
550.0 13848
517.0 13860
508.0 13873
506.0 13885
484.0 13898
500.0 13911
493.0 13923
481.0 13935
497.0 13947
483.0 13961
494.0 13973
494.0 13985
480.0 13998
500.0 14010
493.0 14022
481.0 14035
507.0 14048
486.0 14060
503.0 14072
507.0 14085
485.0 14098
496.0 14110
475.0 14123
466.0 14135
487.0 14147
464.0 14160
490.0 14173
474.0 14185
432.0 14197
630.0 14210
684.0 14222
493.0 14235
479.0 14247
477.0 14260
488.0 14272
477.0 14284
475.0 14298
502.0 14310
488.0 14322
510.0 14334
501.0 14347
499.0 14360
526.0 14372
496.0 14385
509.0 14397
529.0 14409
501.0 14422
522.0 14435
491.0 14447
473.0 14459
495.0 14472
464.0 14484
476.0 14497
487.0 14510
467.0 14522
500.0 14534
481.0 14546
469.0 14560
506.0 14572
471.0 14584
498.0 14597
494.0 14609
479.0 14621
509.0 14635
485.0 14647
475.0 14659
495.0 14671
458.0 14684
487.0 14697
476.0 14709
462.0 14722
496.0 14734
426.0 14746
520.0 14759
753.0 14772
536.0 14784
469.0 14796
485.0 14809
453.0 14821
492.0 14834
463.0 14846
483.0 14859
493.0 14871
470.0 14883
506.0 14897
490.0 14909
501.0 14921
523.0 14934
503.0 14946
530.0 14959
535.0 14971
498.0 14984
516.0 14996
478.0 15008
485.0 15021
510.0 15034
480.0 15046
505.0 15058
493.0 15071
472.0 15083
507.0 15096
475.0 15109
485.0 15121
508.0 15133
472.0 15145
511.0 15159
493.0 15171
495.0 15183
522.0 15196
484.0 15208
508.0 15220
506.0 15234
479.0 15246
505.0 15258
474.0 15270
476.0 15283
501.0 15296
462.0 15308
452.0 15321
606.0 15333
693.0 15345
530.0 15358
456.0 15371
490.0 15383
497.0 15395
463.0 15408
505.0 15420
488.0 15433
475.0 15446
514.0 15458
484.0 15470
513.0 15482
532.0 15496
502.0 15508
541.0 15520
521.0 15533
513.0 15545
521.0 15558
481.0 15570
487.0 15583
485.0 15595
457.0 15607
493.0 15620
470.0 15633
469.0 15645
499.0 15657
469.0 15670
488.0 15682
491.0 15695
462.0 15708
505.0 15720
475.0 15732
491.0 15745
504.0 15758
479.0 15770
492.0 15782
468.0 15795
456.0 15807
485.0 15819
457.0 15833
475.0 15845
462.0 15857
397.0 15869
539.0 15882
688.0 15895
511.0 15907
440.0 15920
438.0 15932
454.0 15944
459.0 15958
436.0 15970
474.0 15982
452.0 15994
460.0 16007
489.0 16019
462.0 16032
499.0 16045
489.0 16057
486.0 16069
508.0 16081
493.0 16095
500.0 16107
489.0 16119
448.0 16132
478.0 16144
457.0 16157
470.0 16169
