583.0 0
578.0 2
546.0 4
501.0 7
455.0 9
414.0 11
384.0 14
366.0 16
361.0 18
370.0 21
388.0 25
423.0 34
398.0 44
437.0 54
398.0 63
433.0 72
399.0 81
420.0 91
410.0 100
422.0 110
416.0 121
436.0 132
420.0 142
449.0 152
421.0 162
419.0 173
431.0 184
677.0 194
697.0 204
528.0 215
438.0 225
507.0 235
445.0 246
484.0 257
453.0 267
482.0 277
462.0 287
488.0 298
468.0 308
498.0 319
483.0 329
508.0 340
506.0 350
515.0 360
513.0 370
521.0 382
529.0 392
528.0 402
547.0 412
524.0 422
547.0 433
519.0 443
522.0 454
484.0 464
520.0 475
480.0 485
516.0 495
479.0 505
524.0 517
484.0 527
520.0 537
487.0 547
524.0 558
489.0 568
528.0 579
498.0 589
522.0 600
497.0 610
522.0 620
494.0 630
513.0 641
506.0 652
506.0 662
516.0 672
507.0 683
514.0 693
496.0 703
520.0 714
493.0 725
528.0 735
494.0 745
527.0 755
495.0 766
538.0 776
493.0 787
535.0 797
497.0 807
546.0 818
504.0 828
546.0 838
528.0 849
558.0 860
530.0 870
556.0 880
532.0 890
542.0 901
527.0 912
536.0 922
524.0 932
519.0 943
518.0 953
511.0 963
528.0 973
515.0 985
531.0 995
457.0 1005
620.0 1016
819.0 1028
693.0 1039
531.0 1051
572.0 1062
546.0 1074
518.0 1085
547.0 1096
508.0 1108
554.0 1120
515.0 1131
540.0 1142
539.0 1154
519.0 1165
560.0 1177
517.0 1188
565.0 1200
536.0 1211
558.0 1222
557.0 1233
552.0 1246
576.0 1257
526.0 1268
541.0 1280
507.0 1291
509.0 1302
509.0 1314
494.0 1326
521.0 1337
483.0 1348
517.0 1359
484.0 1371
510.0 1383
495.0 1394
487.0 1406
511.0 1417
473.0 1428
521.0 1439
481.0 1452
502.0 1463
496.0 1474
489.0 1485
512.0 1497
473.0 1508
517.0 1520
478.0 1531
504.0 1543
495.0 1554
492.0 1565
513.0 1578
477.0 1589
517.0 1600
478.0 1611
509.0 1623
484.0 1634
488.0 1646
502.0 1657
486.0 1669
522.0 1680
486.0 1691
517.0 1702
504.0 1715
496.0 1726
505.0 1737
476.0 1749
510.0 1760
468.0 1771
505.0 1783
485.0 1795
490.0 1806
500.0 1817
449.0 1828
508.0 1840
702.0 1852
769.0 1863
523.0 1874
526.0 1886
526.0 1897
481.0 1909
516.0 1921
476.0 1932
512.0 1943
495.0 1954
500.0 1966
516.0 1978
496.0 1989
534.0 2000
502.0 2012
542.0 2023
519.0 2034
535.0 2047
549.0 2058
526.0 2069
561.0 2080
515.0 2092
531.0 2103
498.0 2115
495.0 2126
492.0 2138
471.0 2149
503.0 2160
462.0 2171
505.0 2184
476.0 2195
488.0 2206
495.0 2218
475.0 2229
509.0 2240
475.0 2252
511.0 2264
484.0 2275
496.0 2286
491.0 2297
480.0 2310
509.0 2321
473.0 2332
511.0 2343
483.0 2355
500.0 2366
501.0 2378
486.0 2390
516.0 2401
479.0 2412
509.0 2423
482.0 2435
502.0 2447
497.0 2458
488.0 2469
517.0 2481
477.0 2492
520.0 2503
499.0 2516
514.0 2527
514.0 2538
507.0 2549
524.0 2561
484.0 2572
515.0 2584
484.0 2595
501.0 2607
497.0 2618
487.0 2629
512.0 2641
476.0 2653
479.0 2664
498.0 2675
764.0 2687
708.0 2698
505.0 2710
541.0 2721
495.0 2733
517.0 2744
486.0 2755
506.0 2766
497.0 2779
495.0 2790
516.0 2801
488.0 2812
532.0 2824
499.0 2835
530.0 2847
524.0 2859
525.0 2870
543.0 2881
514.0 2892
558.0 2904
528.0 2916
539.0 2927
513.0 2938
504.0 2950
506.0 2961
476.0 2972
510.0 2985
471.0 2996
504.0 3007
491.0 3018
490.0 3030
502.0 3042
481.0 3053
512.0 3064
481.0 3076
509.0 3087
487.0 3098
492.0 3110
502.0 3122
479.0 3133
517.0 3144
481.0 3156
508.0 3167
489.0 3179
495.0 3190
494.0 3202
477.0 3213
512.0 3224
475.0 3235
509.0 3248
489.0 3259
495.0 3270
501.0 3281
485.0 3293
517.0 3304
484.0 3316
515.0 3328
503.0 3339
512.0 3350
517.0 3361
503.0 3374
540.0 3385
490.0 3396
520.0 3407
494.0 3419
497.0 3430
504.0 3442
490.0 3454
521.0 3465
484.0 3476
499.0 3487
468.0 3499
678.0 3511
761.0 3522
544.0 3533
529.0 3545
504.0 3556
523.0 3567
493.0 3579
505.0 3591
508.0 3602
495.0 3613
525.0 3625
494.0 3636
537.0 3648
512.0 3659
528.0 3671
526.0 3682
523.0 3693
555.0 3704
526.0 3717
566.0 3728
540.0 3739
554.0 3750
528.0 3762
506.0 3774
520.0 3785
482.0 3797
517.0 3808
480.0 3819
498.0 3830
499.0 3843
493.0 3854
516.0 3865
484.0 3876
518.0 3888
479.0 3899
524.0 3911
501.0 3922
492.0 3934
519.0 3945
488.0 3956
522.0 3968
488.0 3980
512.0 3991
498.0 4002
497.0 4014
511.0 4025
485.0 4036
518.0 4048
487.0 4060
511.0 4071
498.0 4082
496.0 4094
516.0 4106
497.0 4117
539.0 4128
498.0 4140
535.0 4151
517.0 4162
517.0 4174
524.0 4186
488.0 4197
526.0 4208
486.0 4219
512.0 4231
498.0 4243
498.0 4254
489.0 4266
464.0 4277
689.0 4288
732.0 4299
580.0 4312
503.0 4323
526.0 4334
515.0 4345
488.0 4357
522.0 4368
490.0 4380
518.0 4391
502.0 4403
515.0 4414
522.0 4425
499.0 4437
541.0 4449
507.0 4460
546.0 4471
528.0 4483
543.0 4494
550.0 4506
530.0 4517
556.0 4529
504.0 4540
528.0 4551
489.0 4562
498.0 4575
495.0 4586
475.0 4597
508.0 4609
473.0 4620
506.0 4631
481.0 4643
494.0 4655
491.0 4666
481.0 4677
505.0 4688
467.0 4700
510.0 4712
478.0 4723
491.0 4735
497.0 4746
480.0 4757
511.0 4768
476.0 4781
512.0 4792
483.0 4803
502.0 4814
512.0 4826
493.0 4838
531.0 4849
491.0 4860
532.0 4872
498.0 4883
497.0 4894
491.0 4907
481.0 4918
503.0 4929
468.0 4940
512.0 4952
477.0 4963
490.0 4975
461.0 4986
634.0 4998
785.0 5009
556.0 5020
508.0 5031
507.0 5044
499.0 5055
486.0 5066
486.0 5078
504.0 5089
477.0 5100
514.0 5112
483.0 5124
514.0 5135
503.0 5146
504.0 5157
528.0 5169
503.0 5181
548.0 5192
516.0 5204
548.0 5215
530.0 5226
526.0 5238
530.0 5250
483.0 5261
511.0 5272
470.0 5283
496.0 5295
481.0 5307
484.0 5318
496.0 5329
470.0 5341
505.0 5352
469.0 5363
507.0 5376
482.0 5387
490.0 5398
500.0 5409
475.0 5421
507.0 5432
476.0 5444
502.0 5455
484.0 5467
494.0 5478
500.0 5489
479.0 5500
518.0 5513
476.0 5524
516.0 5535
503.0 5547
505.0 5558
522.0 5570
501.0 5581
527.0 5593
484.0 5604
514.0 5615
485.0 5626
496.0 5639
500.0 5650
477.0 5661
519.0 5673
474.0 5684
471.0 5695
525.0 5707
780.0 5719
688.0 5730
491.0 5741
551.0 5752
491.0 5764
519.0 5776
493.0 5787
504.0 5798
514.0 5810
496.0 5821
531.0 5832
500.0 5845
531.0 5856
509.0 5867
527.0 5878
528.0 5890
521.0 5901
559.0 5913
522.0 5924
562.0 5936
535.0 5947
538.0 5958
512.0 5970
490.0 5982
508.0 5993
473.0 6004
504.0 6016
473.0 6027
498.0 6039
494.0 6050
479.0 6062
512.0 6073
474.0 6084
513.0 6095
484.0 6108
502.0 6119
489.0 6130
486.0 6142
508.0 6153
464.0 6164
509.0 6176
478.0 6188
498.0 6199
489.0 6210
487.0 6221
509.0 6233
488.0 6245
522.0 6256
492.0 6267
514.0 6279
501.0 6290
489.0 6302
508.0 6314
474.0 6325
513.0 6336
479.0 6347
506.0 6359
487.0 6371
489.0 6382
479.0 6393
460.0 6405
709.0 6416
734.0 6427
553.0 6439
511.0 6451
516.0 6462
507.0 6473
475.0 6485
514.0 6496
485.0 6508
513.0 6519
497.0 6531
503.0 6542
519.0 6553
499.0 6564
537.0 6577
508.0 6588
542.0 6599
532.0 6610
537.0 6622
553.0 6633
534.0 6645
560.0 6657
500.0 6668
519.0 6679
493.0 6690
495.0 6703
501.0 6714
477.0 6725
516.0 6736
475.0 6748
507.0 6759
486.0 6771
495.0 6783
504.0 6794
485.0 6805
517.0 6816
480.0 6828
517.0 6840
490.0 6851
498.0 6862
504.0 6874
479.0 6885
516.0 6896
475.0 6908
511.0 6920
486.0 6931
501.0 6942
499.0 6954
484.0 6965
529.0 6977
488.0 6988
531.0 7000
507.0 7011
519.0 7022
509.0 7034
492.0 7046
519.0 7057
468.0 7068
509.0 7079
483.0 7091
498.0 7103
501.0 7114
478.0 7126
478.0 7137
595.0 7148
799.0 7159
589.0 7172
501.0 7183
527.0 7194
495.0 7205
521.0 7217
485.0 7228
528.0 7240
494.0 7252
514.0 7263
517.0 7274
503.0 7285
533.0 7297
501.0 7309
543.0 7320
516.0 7331
542.0 7343
546.0 7354
537.0 7365
567.0 7377
518.0 7389
544.0 7400
493.0 7411
504.0 7423
497.0 7435
487.0 7446
512.0 7457
474.0 7469
507.0 7480
478.0 7491
502.0 7503
496.0 7515
493.0 7526
509.0 7537
481.0 7548
519.0 7560
483.0 7572
505.0 7583
498.0 7595
486.0 7606
506.0 7617
471.0 7628
512.0 7641
472.0 7652
493.0 7663
487.0 7674
484.0 7686
498.0 7697
476.0 7709
509.0 7721
479.0 7732
499.0 7743
475.0 7754
474.0 7767
487.0 7778
469.0 7789
501.0 7800
468.0 7812
497.0 7823
480.0 7835
447.0 7846
544.0 7858
752.0 7869
695.0 7880
475.0 7892
537.0 7904
496.0 7915
499.0 7926
501.0 7938
480.0 7949
522.0 7960
486.0 7972
520.0 7984
499.0 7995
515.0 8006
522.0 8017
502.0 8029
552.0 8041
516.0 8052
558.0 8064
542.0 8075
553.0 8086
548.0 8097
514.0 8110
534.0 8121
478.0 8132
509.0 8143
482.0 8155
491.0 8167
497.0 8178
478.0 8190
510.0 8201
474.0 8212
510.0 8223
482.0 8236
499.0 8247
501.0 8258
482.0 8269
515.0 8281
474.0 8292
517.0 8304
487.0 8315
504.0 8327
501.0 8338
489.0 8349
517.0 8361
486.0 8373
522.0 8384
490.0 8395
511.0 8407
503.0 8418
495.0 8429
532.0 8441
500.0 8453
536.0 8464
508.0 8475
529.0 8486
509.0 8499
499.0 8510
514.0 8521
481.0 8533
523.0 8544
483.0 8555
512.0 8567
499.0 8579
496.0 8590
482.0 8601
503.0 8612
776.0 8624
696.0 8636
524.0 8647
530.0 8658
514.0 8670
521.0 8681
482.0 8692
529.0 8705
490.0 8716
518.0 8727
504.0 8738
507.0 8750
529.0 8761
505.0 8773
549.0 8784
514.0 8796
551.0 8807
538.0 8818
545.0 8830
565.0 8842
534.0 8853
553.0 8864
502.0 8876
519.0 8887
495.0 8899
494.0 8910
503.0 8922
478.0 8933
514.0 8944
478.0 8955
508.0 8968
490.0 8979
496.0 8990
501.0 9002
481.0 9013
516.0 9024
474.0 9036
507.0 9048
490.0 9059
498.0 9070
499.0 9081
480.0 9093
515.0 9105
478.0 9116
514.0 9127
492.0 9139
500.0 9150
508.0 9161
496.0 9174
524.0 9185
497.0 9196
530.0 9207
502.0 9219
498.0 9231
505.0 9242
484.0 9253
510.0 9265
479.0 9276
507.0 9287
482.0 9300
498.0 9311
470.0 9322
488.0 9333
737.0 9345
705.0 9356
549.0 9368
495.0 9379
526.0 9391
508.0 9402
492.0 9413
521.0 9424
487.0 9437
523.0 9448
498.0 9459
519.0 9471
502.0 9482
508.0 9493
531.0 9505
503.0 9517
547.0 9528
519.0 9539
547.0 9550
542.0 9562
540.0 9574
544.0 9585
493.0 9596
525.0 9608
477.0 9619
497.0 9631
483.0 9643
478.0 9654
500.0 9665
466.0 9676
503.0 9688
475.0 9700
503.0 9711
490.0 9722
483.0 9734
502.0 9745
475.0 9756
510.0 9769
475.0 9780
495.0 9791
487.0 9802
486.0 9814
500.0 9825
478.0 9837
513.0 9848
476.0 9860
502.0 9871
489.0 9882
487.0 9893
504.0 9906
471.0 9917
511.0 9928
486.0 9940
516.0 9951
503.0 9963
515.0 9974
522.0 9986
486.0 9997
516.0 10008
477.0 10020
495.0 10034
503.0 10046
476.0 10058
511.0 10071
493.0 10083
461.0 10096
508.0 10108
710.0 10121
707.0 10133
510.0 10145
512.0 10158
526.0 10171
493.0 10183
492.0 10196
520.0 10208
486.0 10220
513.0 10233
515.0 10246
495.0 10258
535.0 10270
511.0 10283
522.0 10296
551.0 10308
521.0 10320
558.0 10333
549.0 10345
521.0 10357
541.0 10371
493.0 10383
487.0 10395
500.0 10407
459.0 10420
499.0 10433
482.0 10445
473.0 10458
509.0 10470
474.0 10482
490.0 10496
498.0 10508
469.0 10520
504.0 10532
487.0 10545
482.0 10557
509.0 10570
480.0 10583
495.0 10595
499.0 10607
477.0 10619
516.0 10633
491.0 10645
490.0 10657
516.0 10670
478.0 10682
507.0 10695
503.0 10708
483.0 10720
531.0 10732
507.0 10744
511.0 10757
537.0 10770
497.0 10782
514.0 10795
505.0 10807
481.0 10819
520.0 10832
490.0 10845
498.0 10857
511.0 10869
464.0 10882
497.0 10895
708.0 10907
703.0 10919
529.0 10932
508.0 10944
506.0 10956
506.0 10970
473.0 10982
508.0 10994
496.0 11007
487.0 11019
526.0 11032
496.0 11044
520.0 11057
526.0 11069
498.0 11081
547.0 11095
534.0 11107
532.0 11119
559.0 11131
518.0 11144
522.0 11156
514.0 11169
476.0 11182
510.0 11194
485.0 11206
484.0 11218
505.0 11232
474.0 11244
506.0 11256
496.0 11269
476.0 11281
514.0 11294
490.0 11307
493.0 11319
515.0 11331
480.0 11343
512.0 11356
499.0 11369
486.0 11381
523.0 11394
491.0 11406
497.0 11418
516.0 11431
481.0 11444
511.0 11456
498.0 11468
493.0 11481
521.0 11494
495.0 11506
506.0 11519
512.0 11531
497.0 11543
532.0 11555
517.0 11569
520.0 11581
539.0 11593
499.0 11606
513.0 11618
514.0 11631
486.0 11643
518.0 11656
496.0 11668
501.0 11680
518.0 11694
448.0 11706
557.0 11718
798.0 11730
610.0 11743
525.0 11755
522.0 11768
500.0 11781
519.0 11793
487.0 11805
514.0 11818
506.0 11831
493.0 11843
527.0 11855
501.0 11868
517.0 11880
534.0 11893
506.0 11906
553.0 11918
541.0 11930
536.0 11942
566.0 11955
518.0 11968
524.0 11980
510.0 11993
470.0 12005
505.0 12017
484.0 12031
479.0 12043
508.0 12055
469.0 12067
498.0 12080
494.0 12093
477.0 12105
509.0 12118
483.0 12130
486.0 12142
514.0 12154
475.0 12168
506.0 12180
493.0 12192
480.0 12205
509.0 12217
482.0 12230
492.0 12242
507.0 12255
477.0 12267
507.0 12279
498.0 12293
481.0 12305
520.0 12317
485.0 12330
503.0 12342
523.0 12354
489.0 12367
527.0 12380
513.0 12392
498.0 12404
519.0 12417
481.0 12430
500.0 12442
513.0 12454
480.0 12467
511.0 12479
499.0 12492
456.0 12505
547.0 12517
771.0 12529
650.0 12542
507.0 12554
511.0 12567
528.0 12579
491.0 12592
501.0 12604
516.0 12616
485.0 12630
518.0 12642
518.0 12654
497.0 12666
536.0 12679
511.0 12692
525.0 12704
548.0 12717
525.0 12729
558.0 12741
551.0 12753
522.0 12767
534.0 12779
492.0 12791
494.0 12804
502.0 12816
472.0 12829
506.0 12842
490.0 12854
480.0 12866
512.0 12878
481.0 12892
498.0 12904
506.0 12916
476.0 12929
510.0 12941
487.0 12953
486.0 12966
513.0 12979
479.0 12991
500.0 13003
501.0 13016
481.0 13029
516.0 13041
491.0 13054
499.0 13066
518.0 13078
478.0 13091
507.0 13104
500.0 13116
484.0 13128
533.0 13141
502.0 13153
517.0 13166
531.0 13178
490.0 13191
516.0 13203
501.0 13215
480.0 13229
518.0 13241
483.0 13253
496.0 13265
506.0 13278
469.0 13291
469.0 13303
631.0 13316
764.0 13328
560.0 13340
518.0 13353
519.0 13366
510.0 13378
476.0 13390
519.0 13403
490.0 13415
494.0 13428
529.0 13441
489.0 13453
520.0 13465
519.0 13477
506.0 13491
553.0 13503
532.0 13515
533.0 13528
561.0 13540
525.0 13552
534.0 13566
516.0 13578
479.0 13590
506.0 13602
481.0 13615
482.0 13628
505.0 13640
469.0 13653
503.0 13665
489.0 13677
473.0 13690
510.0 13703
476.0 13715
492.0 13727
506.0 13740
473.0 13752
513.0 13765
494.0 13777
479.0 13790
516.0 13802
480.0 13814
500.0 13828
507.0 13840
474.0 13852
517.0 13865
496.0 13877
483.0 13890
516.0 13902
485.0 13915
503.0 13927
513.0 13939
496.0 13952
527.0 13965
509.0 13977
514.0 13989
535.0 14002
499.0 14014
511.0 14027
507.0 14040
483.0 14052
523.0 14064
483.0 14076
502.0 14090
515.0 14102
446.0 14114
635.0 14127
793.0 14139
534.0 14151
547.0 14165
506.0 14177
504.0 14189
527.0 14201
486.0 14214
517.0 14227
513.0 14239
496.0 14252
533.0 14264
509.0 14276
522.0 14289
541.0 14302
508.0 14314
556.0 14326
548.0 14339
531.0 14351
567.0 14364
518.0 14377
523.0 14389
513.0 14401
478.0 14413
508.0 14427
484.0 14439
481.0 14451
511.0 14464
475.0 14476
498.0 14489
499.0 14501
472.0 14514
515.0 14526
485.0 14538
490.0 14551
517.0 14564
473.0 14576
500.0 14588
498.0 14601
471.0 14613
516.0 14626
483.0 14639
488.0 14651
507.0 14663
473.0 14676
505.0 14689
498.0 14701
484.0 14713
519.0 14726
500.0 14738
509.0 14750
528.0 14764
500.0 14776
517.0 14788
503.0 14800
476.0 14813
509.0 14826
475.0 14838
492.0 14851
502.0 14863
473.0 14875
502.0 14889
446.0 14901
638.0 14913
765.0 14925
518.0 14938
513.0 14950
515.0 14963
470.0 14976
513.0 14988
485.0 15000
489.0 15012
518.0 15026
479.0 15038
517.0 15050
512.0 15063
504.0 15075
541.0 15088
525.0 15100
536.0 15113
559.0 15125
522.0 15137
545.0 15150
528.0 15163
508.0 15175
516.0 15188
480.0 15200
503.0 15212
520.0 15225
488.0 15238
519.0 15250
504.0 15262
493.0 15275
523.0 15288
489.0 15300
507.0 15312
481.0 15325
494.0 15337
497.0 15349
188.0 15363
0.0 15373
0.0 15383
0.0 15393
415.0 15406
625.0 15418
623.0 15431
603.0 15444
581.0 15456
617.0 15468
587.0 15480
590.0 15494
538.0 15506
582.0 15518
621.0 15531
599.0 15543
581.0 15556
603.0 15568
564.0 15581
570.0 15593
601.0 15605
555.0 15618
580.0 15631
554.0 15643
769.0 15655
798.0 15668
561.0 15680
602.0 15693
577.0 15706
542.0 15718
572.0 15730
542.0 15743
543.0 15756
561.0 15768
528.0 15780
544.0 15793
525.0 15805
503.0 15817
562.0 15831
553.0 15843
557.0 15855
587.0 15867
561.0 15880
579.0 15893
552.0 15905
531.0 15918
546.0 15930
495.0 15942
506.0 15956
533.0 15968
482.0 15980
523.0 15992
499.0 16005
493.0 16017
535.0 16030
479.0 16043
521.0 16055
519.0 16067
491.0 16079
518.0 16093
503.0 16105
489.0 16117
521.0 16130
484.0 16142
513.0 16155
513.0 16167
492.0 16180
529.0 16192
504.0 16204
493.0 16217
509.0 16230
463.0 16242
492.0 16255
482.0 16267
451.0 16279
518.0 16292
473.0 16305
468.0 16317
529.0 16329
731.0 16342
659.0 16355
480.0 16367
500.0 16379
513.0 16392
473.0 16404
488.0 16416
500.0 16430
464.0 16442
517.0 16454
494.0 16466
490.0 16479
521.0 16492
497.0 16504
517.0 16517
518.0 16529
514.0 16541
554.0 16555
520.0 16567
503.0 16579
521.0 16591
485.0 16604
491.0 16616
488.0 16629
465.0 16642
497.0 16654
480.0 16666
473.0 16678
518.0 16692
471.0 16704
501.0 16716
499.0 16729
477.0 16741
521.0 16754
480.0 16767
511.0 16779
535.0 16791
495.0 16803
529.0 16816
526.0 16829
498.0 16841
529.0 16854
496.0 16866
503.0 16878
507.0 16891
479.0 16904
501.0 16916
494.0 16928
482.0 16941
471.0 16954
574.0 16966
