613.0 2
609.0 4
527.0 6
399.0 9
279.0 11
191.0 13
147.0 16
140.0 18
161.0 20
197.0 23
234.0 28
282.0 37
322.0 48
363.0 57
375.0 66
407.0 75
400.0 84
445.0 94
424.0 103
463.0 114
446.0 124
477.0 135
459.0 145
490.0 155
476.0 165
497.0 176
498.0 187
517.0 197
521.0 207
524.0 218
515.0 228
503.0 238
533.0 249
503.0 260
528.0 270
511.0 280
538.0 290
515.0 301
547.0 311
516.0 322
539.0 332
471.0 343
666.0 353
828.0 363
744.0 373
587.0 385
607.0 395
594.0 405
587.0 415
562.0 425
572.0 436
564.0 447
574.0 457
542.0 467
554.0 478
547.0 488
545.0 498
546.0 508
540.0 520
573.0 530
572.0 540
579.0 550
552.0 561
560.0 571
527.0 582
515.0 592
468.0 603
465.0 613
429.0 623
454.0 633
439.0 644
450.0 655
423.0 665
437.0 675
417.0 686
411.0 696
392.0 706
393.0 717
373.0 728
383.0 738
381.0 748
380.0 758
337.0 769
300.0 780
341.0 790
339.0 800
365.0 811
364.0 821
390.0 831
386.0 841
414.0 852
394.0 863
430.0 873
418.0 883
437.0 893
414.0 904
430.0 915
417.0 925
431.0 935
415.0 946
427.0 956
418.0 966
432.0 976
427.0 988
434.0 998
438.0 1008
399.0 1019
548.0 1031
729.0 1042
620.0 1054
471.0 1065
505.0 1077
473.0 1088
466.0 1099
483.0 1111
465.0 1123
490.0 1134
483.0 1145
495.0 1157
491.0 1168
487.0 1180
508.0 1191
497.0 1203
520.0 1214
513.0 1225
526.0 1236
534.0 1249
522.0 1260
525.0 1271
493.0 1283
489.0 1294
469.0 1305
472.0 1317
459.0 1329
458.0 1340
475.0 1351
460.0 1362
473.0 1374
475.0 1386
476.0 1397
472.0 1409
459.0 1420
478.0 1431
456.0 1442
480.0 1455
462.0 1466
469.0 1477
464.0 1488
454.0 1500
482.0 1512
466.0 1523
494.0 1534
489.0 1546
496.0 1557
485.0 1568
472.0 1581
484.0 1592
466.0 1603
483.0 1614
472.0 1626
479.0 1637
477.0 1649
470.0 1660
481.0 1672
426.0 1683
550.0 1694
751.0 1705
638.0 1718
489.0 1729
495.0 1740
491.0 1752
464.0 1763
480.0 1774
474.0 1786
481.0 1798
489.0 1809
473.0 1820
493.0 1831
479.0 1843
506.0 1855
497.0 1866
510.0 1878
521.0 1889
514.0 1900
537.0 1912
522.0 1924
532.0 1935
509.0 1946
487.0 1957
483.0 1969
466.0 1981
487.0 1992
461.0 2003
469.0 2015
467.0 2026
474.0 2037
483.0 2050
467.0 2061
486.0 2072
459.0 2083
474.0 2095
465.0 2106
475.0 2118
476.0 2129
469.0 2141
491.0 2152
475.0 2163
492.0 2174
483.0 2187
490.0 2198
508.0 2209
493.0 2221
527.0 2232
519.0 2244
533.0 2255
516.0 2267
516.0 2278
527.0 2289
506.0 2300
518.0 2313
486.0 2324
488.0 2335
484.0 2347
489.0 2358
469.0 2369
477.0 2381
701.0 2393
727.0 2404
571.0 2415
542.0 2426
536.0 2438
531.0 2450
508.0 2461
528.0 2472
509.0 2484
522.0 2495
519.0 2506
523.0 2519
529.0 2530
522.0 2541
545.0 2552
525.0 2564
548.0 2575
540.0 2587
546.0 2598
561.0 2610
542.0 2621
545.0 2632
513.0 2644
516.0 2656
497.0 2667
491.0 2678
499.0 2690
484.0 2701
511.0 2713
499.0 2724
506.0 2736
510.0 2747
505.0 2758
519.0 2769
509.0 2782
530.0 2793
522.0 2804
529.0 2816
528.0 2827
523.0 2838
538.0 2850
519.0 2862
542.0 2873
522.0 2884
532.0 2895
539.0 2907
528.0 2919
545.0 2930
540.0 2941
550.0 2953
526.0 2964
538.0 2976
528.0 2988
516.0 2999
532.0 3010
514.0 3021
528.0 3033
517.0 3045
531.0 3056
507.0 3067
490.0 3079
648.0 3090
767.0 3101
638.0 3113
536.0 3125
558.0 3136
530.0 3147
521.0 3159
527.0 3170
511.0 3182
520.0 3193
513.0 3205
524.0 3216
521.0 3227
522.0 3238
540.0 3251
517.0 3262
554.0 3273
541.0 3284
551.0 3296
556.0 3307
551.0 3319
552.0 3331
517.0 3342
519.0 3353
491.0 3364
500.0 3377
500.0 3388
493.0 3399
508.0 3410
494.0 3422
509.0 3433
503.0 3445
512.0 3457
515.0 3468
511.0 3479
521.0 3490
505.0 3502
528.0 3514
508.0 3525
518.0 3536
520.0 3548
511.0 3559
524.0 3570
514.0 3582
533.0 3594
531.0 3605
537.0 3616
522.0 3628
503.0 3639
518.0 3651
494.0 3662
505.0 3674
502.0 3685
501.0 3696
496.0 3708
491.0 3720
500.0 3731
438.0 3742
543.0 3753
758.0 3765
665.0 3777
510.0 3788
503.0 3800
510.0 3811
480.0 3822
491.0 3833
489.0 3846
494.0 3857
492.0 3868
491.0 3879
511.0 3891
494.0 3902
524.0 3914
520.0 3926
526.0 3937
537.0 3948
532.0 3959
553.0 3971
531.0 3983
542.0 3994
517.0 4005
508.0 4017
493.0 4028
485.0 4039
501.0 4051
477.0 4063
499.0 4074
492.0 4085
493.0 4097
504.0 4109
490.0 4120
506.0 4131
496.0 4143
509.0 4154
493.0 4165
500.0 4177
503.0 4189
481.0 4200
512.0 4211
484.0 4222
511.0 4234
504.0 4246
511.0 4257
508.0 4269
492.0 4280
505.0 4291
477.0 4302
491.0 4315
476.0 4326
480.0 4337
481.0 4348
465.0 4360
446.0 4371
386.0 4383
418.0 4395
407.0 4406
516.0 4417
736.0 4428
571.0 4441
506.0 4452
510.0 4463
511.0 4474
509.0 4486
494.0 4497
533.0 4509
492.0 4520
533.0 4532
517.0 4543
532.0 4554
550.0 4566
541.0 4578
582.0 4589
549.0 4600
601.0 4612
573.0 4623
597.0 4634
599.0 4646
582.0 4658
583.0 4669
535.0 4680
558.0 4691
526.0 4703
541.0 4715
528.0 4726
522.0 4738
546.0 4749
506.0 4760
534.0 4771
517.0 4784
528.0 4795
526.0 4806
511.0 4817
529.0 4829
496.0 4841
529.0 4852
493.0 4864
507.0 4875
506.0 4886
481.0 4897
520.0 4910
479.0 4921
516.0 4932
493.0 4943
511.0 4955
506.0 4966
506.0 4978
517.0 4989
485.0 5001
517.0 5012
484.0 5023
500.0 5035
497.0 5047
491.0 5058
503.0 5069
473.0 5081
495.0 5092
443.0 5103
495.0 5115
711.0 5127
678.0 5138
531.0 5149
503.0 5160
517.0 5173
482.0 5184
487.0 5195
488.0 5207
474.0 5218
500.0 5229
479.0 5241
510.0 5253
482.0 5264
503.0 5275
504.0 5286
498.0 5298
532.0 5310
507.0 5321
534.0 5332
521.0 5344
526.0 5355
501.0 5366
484.0 5379
494.0 5390
457.0 5401
486.0 5412
458.0 5424
470.0 5435
478.0 5447
465.0 5458
483.0 5470
452.0 5481
479.0 5492
460.0 5504
474.0 5516
485.0 5527
459.0 5538
492.0 5550
454.0 5561
487.0 5573
468.0 5584
478.0 5596
494.0 5607
471.0 5618
501.0 5629
482.0 5642
514.0 5653
497.0 5664
506.0 5676
513.0 5687
480.0 5698
516.0 5710
469.0 5722
502.0 5733
478.0 5744
476.0 5755
493.0 5767
463.0 5779
511.0 5790
454.0 5801
478.0 5813
651.0 5824
734.0 5835
585.0 5848
496.0 5859
557.0 5870
490.0 5881
514.0 5893
499.0 5905
494.0 5916
523.0 5927
483.0 5939
531.0 5950
487.0 5961
526.0 5974
528.0 5985
513.0 5996
562.0 6007
517.0 6019
568.0 6030
538.0 6042
557.0 6053
540.0 6065
518.0 6076
532.0 6087
481.0 6098
527.0 6111
481.0 6122
504.0 6133
505.0 6145
485.0 6156
524.0 6167
469.0 6179
521.0 6191
474.0 6202
499.0 6213
504.0 6224
481.0 6236
532.0 6248
471.0 6259
521.0 6270
477.0 6282
499.0 6293
505.0 6305
486.0 6317
534.0 6328
490.0 6339
531.0 6350
489.0 6362
505.0 6374
504.0 6385
471.0 6396
518.0 6408
464.0 6419
516.0 6430
481.0 6443
504.0 6454
496.0 6465
451.0 6476
639.0 6488
751.0 6499
643.0 6511
512.0 6522
551.0 6534
540.0 6545
505.0 6556
538.0 6567
495.0 6580
537.0 6591
502.0 6602
518.0 6614
526.0 6625
504.0 6637
551.0 6648
501.0 6660
562.0 6671
528.0 6682
547.0 6693
561.0 6706
534.0 6717
554.0 6728
493.0 6739
524.0 6751
483.0 6762
497.0 6774
498.0 6786
474.0 6797
512.0 6808
465.0 6819
493.0 6831
472.0 6843
482.0 6854
493.0 6865
467.0 6877
499.0 6888
455.0 6899
499.0 6912
467.0 6923
479.0 6934
497.0 6945
471.0 6957
509.0 6968
473.0 6980
512.0 6991
483.0 7003
501.0 7014
510.0 7025
483.0 7037
518.0 7049
465.0 7060
504.0 7071
475.0 7083
483.0 7094
494.0 7106
468.0 7117
499.0 7129
464.0 7140
458.0 7151
523.0 7162
759.0 7175
645.0 7186
499.0 7197
550.0 7208
487.0 7220
516.0 7231
489.0 7243
498.0 7255
500.0 7266
488.0 7277
513.0 7288
487.0 7300
524.0 7312
502.0 7323
521.0 7334
530.0 7346
526.0 7357
557.0 7369
535.0 7380
562.0 7392
528.0 7403
528.0 7414
512.0 7426
490.0 7438
512.0 7449
465.0 7460
498.0 7472
470.0 7483
480.0 7494
503.0 7506
472.0 7518
503.0 7529
472.0 7540
499.0 7552
477.0 7563
489.0 7575
494.0 7586
473.0 7598
501.0 7609
470.0 7620
496.0 7631
480.0 7644
489.0 7655
491.0 7666
480.0 7677
502.0 7689
476.0 7700
509.0 7712
487.0 7724
506.0 7735
512.0 7746
487.0 7757
501.0 7770
467.0 7781
495.0 7792
480.0 7803
489.0 7815
493.0 7826
486.0 7838
505.0 7849
475.0 7861
462.0 7872
530.0 7883
767.0 7895
659.0 7907
502.0 7918
550.0 7929
499.0 7941
508.0 7952
491.0 7963
506.0 7975
511.0 7987
492.0 7998
521.0 8009
495.0 8020
515.0 8032
511.0 8044
513.0 8055
542.0 8067
510.0 8078
560.0 8089
526.0 8101
561.0 8113
544.0 8124
526.0 8135
535.0 8146
487.0 8158
522.0 8170
476.0 8181
502.0 8193
497.0 8204
485.0 8215
517.0 8226
479.0 8239
515.0 8250
482.0 8261
501.0 8272
493.0 8284
470.0 8295
521.0 8307
471.0 8318
515.0 8330
482.0 8341
496.0 8352
499.0 8364
487.0 8376
515.0 8387
479.0 8398
526.0 8410
496.0 8421
521.0 8432
531.0 8444
508.0 8456
546.0 8467
507.0 8478
531.0 8489
496.0 8502
515.0 8513
505.0 8524
496.0 8536
526.0 8547
480.0 8558
524.0 8570
489.0 8582
496.0 8593
472.0 8604
601.0 8615
787.0 8627
611.0 8639
533.0 8650
532.0 8662
528.0 8673
522.0 8684
501.0 8695
544.0 8708
491.0 8719
539.0 8730
508.0 8741
525.0 8753
531.0 8764
518.0 8776
559.0 8787
519.0 8799
568.0 8810
536.0 8821
559.0 8834
560.0 8845
531.0 8856
554.0 8867
490.0 8879
515.0 8890
482.0 8902
490.0 8913
496.0 8925
465.0 8936
509.0 8947
459.0 8958
501.0 8971
465.0 8982
478.0 8993
499.0 9005
458.0 9016
509.0 9027
457.0 9039
498.0 9051
477.0 9062
482.0 9073
499.0 9084
462.0 9096
521.0 9108
464.0 9119
511.0 9131
487.0 9142
495.0 9153
525.0 9164
486.0 9177
534.0 9188
474.0 9199
516.0 9210
486.0 9222
489.0 9234
511.0 9245
470.0 9256
526.0 9268
472.0 9279
509.0 9290
465.0 9303
483.0 9314
714.0 9325
691.0 9336
576.0 9348
506.0 9359
552.0 9371
509.0 9382
496.0 9394
530.0 9405
474.0 9416
535.0 9427
482.0 9440
522.0 9451
499.0 9462
503.0 9474
531.0 9485
488.0 9496
562.0 9508
496.0 9520
551.0 9531
536.0 9542
520.0 9553
545.0 9566
477.0 9577
528.0 9588
458.0 9600
499.0 9611
476.0 9622
439.0 9634
501.0 9646
435.0 9657
497.0 9668
438.0 9679
478.0 9691
473.0 9703
443.0 9714
496.0 9725
431.0 9737
498.0 9748
440.0 9759
479.0 9772
473.0 9783
446.0 9794
505.0 9805
441.0 9817
507.0 9828
448.0 9840
486.0 9851
473.0 9863
464.0 9874
506.0 9885
448.0 9896
530.0 9909
459.0 9920
497.0 9931
489.0 9943
471.0 9954
515.0 9966
454.0 9977
513.0 9989
467.0 10000
488.0 10012
503.0 10024
448.0 10038
474.0 10050
604.0 10062
704.0 10075
574.0 10087
507.0 10100
529.0 10113
537.0 10125
480.0 10137
533.0 10149
513.0 10162
493.0 10175
546.0 10187
494.0 10200
518.0 10212
546.0 10224
503.0 10237
565.0 10250
542.0 10262
531.0 10274
588.0 10287
522.0 10300
541.0 10312
544.0 10324
479.0 10337
530.0 10349
490.0 10361
482.0 10375
528.0 10387
479.0 10399
509.0 10412
519.0 10424
475.0 10437
528.0 10449
498.0 10462
496.0 10474
536.0 10486
477.0 10500
513.0 10512
517.0 10524
473.0 10536
528.0 10549
499.0 10561
493.0 10574
531.0 10587
478.0 10599
518.0 10611
520.0 10624
486.0 10637
546.0 10649
516.0 10661
510.0 10674
544.0 10686
480.0 10699
520.0 10712
524.0 10724
472.0 10736
525.0 10748
488.0 10761
490.0 10774
532.0 10786
436.0 10799
562.0 10811
779.0 10823
594.0 10836
551.0 10849
539.0 10861
511.0 10873
545.0 10886
494.0 10899
526.0 10911
525.0 10924
492.0 10936
552.0 10948
514.0 10960
522.0 10974
570.0 10986
513.0 10998
563.0 11011
565.0 11023
532.0 11036
584.0 11048
530.0 11061
515.0 11073
547.0 11085
470.0 11099
517.0 11111
505.0 11123
470.0 11136
522.0 11148
479.0 11160
485.0 11173
524.0 11186
455.0 11198
501.0 11210
491.0 11223
463.0 11236
516.0 11248
469.0 11260
476.0 11273
511.0 11285
455.0 11298
514.0 11311
494.0 11323
466.0 11335
528.0 11347
476.0 11360
506.0 11373
534.0 11385
479.0 11398
525.0 11410
501.0 11422
480.0 11436
529.0 11448
481.0 11460
497.0 11472
532.0 11485
472.0 11498
506.0 11510
503.0 11523
704.0 11535
738.0 11547
520.0 11559
559.0 11573
562.0 11585
496.0 11597
551.0 11610
528.0 11622
507.0 11635
565.0 11648
507.0 11660
530.0 11672
559.0 11684
507.0 11698
577.0 11710
557.0 11722
544.0 11735
596.0 11747
544.0 11759
561.0 11772
570.0 11785
499.0 11797
541.0 11809
504.0 11822
483.0 11835
529.0 11847
470.0 11859
493.0 11872
512.0 11884
455.0 11897
514.0 11910
484.0 11922
470.0 11934
520.0 11947
462.0 11959
493.0 11972
508.0 11984
448.0 11997
510.0 12009
475.0 12021
471.0 12035
526.0 12047
465.0 12059
507.0 12071
523.0 12084
466.0 12097
525.0 12109
489.0 12122
473.0 12134
521.0 12146
454.0 12158
488.0 12172
497.0 12184
445.0 12196
485.0 12209
467.0 12221
673.0 12234
681.0 12247
470.0 12259
526.0 12271
503.0 12283
459.0 12297
522.0 12309
469.0 12321
472.0 12334
514.0 12346
456.0 12358
497.0 12371
504.0 12384
467.0 12396
534.0 12408
492.0 12421
506.0 12434
552.0 12446
487.0 12459
520.0 12471
496.0 12483
445.0 12496
498.0 12509
450.0 12521
445.0 12533
495.0 12546
432.0 12558
476.0 12571
477.0 12583
431.0 12596
500.0 12608
446.0 12620
451.0 12634
497.0 12646
436.0 12658
477.0 12670
471.0 12683
432.0 12696
500.0 12708
457.0 12721
467.0 12733
506.0 12745
452.0 12758
498.0 12771
492.0 12783
473.0 12795
525.0 12808
467.0 12820
476.0 12833
503.0 12846
448.0 12858
500.0 12870
476.0 12882
446.0 12896
516.0 12908
436.0 12920
472.0 12933
709.0 12945
646.0 12957
539.0 12971
546.0 12983
491.0 12995
545.0 13007
488.0 13020
509.0 13033
540.0 13045
478.0 13058
534.0 13070
524.0 13082
499.0 13095
568.0 13108
508.0 13120
540.0 13132
574.0 13145
520.0 13157
578.0 13170
552.0 13182
504.0 13195
544.0 13207
483.0 13219
507.0 13233
530.0 13245
471.0 13257
520.0 13270
496.0 13282
476.0 13295
534.0 13307
468.0 13320
497.0 13332
514.0 13344
458.0 13357
518.0 13370
488.0 13382
468.0 13394
519.0 13407
457.0 13419
496.0 13432
511.0 13445
455.0 13457
522.0 13469
493.0 13481
482.0 13495
547.0 13507
480.0 13519
512.0 13532
517.0 13544
462.0 13556
518.0 13570
488.0 13582
475.0 13594
529.0 13606
468.0 13619
502.0 13632
480.0 13644
550.0 13657
801.0 13669
594.0 13681
520.0 13694
581.0 13707
495.0 13719
537.0 13731
535.0 13744
493.0 13756
548.0 13769
513.0 13782
520.0 13794
570.0 13806
517.0 13818
567.0 13832
573.0 13844
534.0 13856
604.0 13869
559.0 13881
558.0 13894
587.0 13906
507.0 13919
536.0 13931
523.0 13943
482.0 13956
534.0 13969
491.0 13981
491.0 13993
543.0 14006
467.0 14018
517.0 14031
509.0 14044
474.0 14056
528.0 14068
487.0 14081
491.0 14094
530.0 14106
464.0 14118
510.0 14131
515.0 14143
472.0 14155
544.0 14169
493.0 14181
509.0 14193
544.0 14205
475.0 14218
519.0 14231
500.0 14243
466.0 14256
522.0 14268
465.0 14280
482.0 14294
518.0 14306
450.0 14318
481.0 14330
523.0 14343
728.0 14355
681.0 14368
492.0 14381
534.0 14393
534.0 14405
470.0 14417
527.0 14431
504.0 14443
478.0 14455
538.0 14468
488.0 14480
507.0 14493
542.0 14505
480.0 14518
548.0 14530
533.0 14542
511.0 14555
577.0 14568
509.0 14580
515.0 14593
528.0 14605
461.0 14617
513.0 14630
486.0 14643
456.0 14655
509.0 14667
452.0 14680
479.0 14693
505.0 14705
439.0 14717
505.0 14730
479.0 14742
456.0 14754
516.0 14768
455.0 14780
483.0 14792
504.0 14804
446.0 14817
514.0 14830
483.0 14842
471.0 14855
532.0 14867
465.0 14879
489.0 14893
503.0 14905
445.0 14917
502.0 14929
472.0 14942
458.0 14954
512.0 14967
450.0 14980
489.0 14992
459.0 15004
484.0 15016
776.0 15030
593.0 15042
486.0 15054
556.0 15067
473.0 15079
496.0 15092
516.0 15105
458.0 15117
522.0 15129
487.0 15141
484.0 15154
537.0 15167
478.0 15179
516.0 15192
533.0 15204
486.0 15216
559.0 15229
522.0 15242
510.0 15254
539.0 15266
459.0 15279
488.0 15292
488.0 15304
434.0 15316
498.0 15329
460.0 15341
450.0 15353
504.0 15367
435.0 15379
480.0 15391
489.0 15404
432.0 15416
508.0 15429
468.0 15441
476.0 15454
510.0 15466
450.0 15478
497.0 15492
500.0 15504
456.0 15516
522.0 15528
483.0 15541
569.0 15553
579.0 15566
547.0 15579
566.0 15591
548.0 15603
542.0 15616
559.0 15629
573.0 15641
547.0 15653
533.0 15666
582.0 15678
572.0 15691
512.0 15704
529.0 15716
756.0 15728
674.0 15740
495.0 15753
480.0 15766
411.0 15778
415.0 15791
386.0 15803
366.0 15815
364.0 15828
325.0 15841
329.0 15853
330.0 15865
314.0 15878
332.0 15891
336.0 15903
336.0 15916
357.0 15928
345.0 15940
359.0 15952
353.0 15966
326.0 15978
330.0 15990
307.0 16003
303.0 16015
318.0 16028
312.0 16040
327.0 16053
336.0 16065
331.0 16077
346.0 16091
342.0 16103
346.0 16115
364.0 16128
351.0 16140
371.0 16152
374.0 16165
366.0 16178
388.0 16190
386.0 16202
390.0 16215
407.0 16228
399.0 16240
412.0 16252
425.0 16265
417.0 16277
441.0 16290
440.0 16303
441.0 16315
456.0 16327
438.0 16339
454.0 16352
455.0 16365
448.0 16377
476.0 16390
466.0 16402
476.0 16414
487.0 16428
451.0 16440
633.0 16452
754.0 16464
576.0 16477
552.0 16490
543.0 16502
546.0 16515
553.0 16527
540.0 16539
587.0 16551
590.0 16565
575.0 16577
585.0 16589
587.0 16602
587.0 16614
616.0 16627
606.0 16640
633.0 16652
640.0 16664
642.0 16676
654.0 16690
622.0 16702
617.0 16714
613.0 16727
586.0 16739
